avr_riseTime_1,avr_fallTime_1,avr_riseLevel_1,avr_fallLevel_1,Usuario
4.8,5,312.9055577,-355.9759467,1
4.6,5.2,312.511106,-349.2888328,1
4.5,5,310.8591725,-342.1976823,1
4.4,5.2,308.4006095,-340.074301,1
4.8,5.2,309.243406,-346.3605844,1
4.5,5,302.6703301,-335.1446637,1
4.4,5.2,316.3885834,-340.9808363,1
5,5,316.952951,-349.2114075,1
4.6,5.2,318.0927697,-349.01196,1
5,5,322.2786411,-347.303381,1
4.8,5.2,328.8334732,-356.7002311,1
4.6,5,324.9968809,-344.9251819,1
5,5,326.440434,-361.4086359,1
4.6,5,320.5172264,-357.2384793,1
4.8,5,322.7461112,-356.8337361,1
4.6,5,316.2345346,-357.2546689,1
4.8,5.2,298.9501217,-324.4384042,1
4.6,5,299.9417717,-348.5874368,1
4.8,5,300.2087286,-352.3741827,1
5,5,319.2617086,-355.5863014,1
5,5,308.3319963,-338.1383093,1
4.6,5.4,297.3536775,-334.2246237,1
4.8,5.2,296.2772001,-336.1570416,1
5,5,313.9335745,-341.3030314,1
4.8,5.2,303.8669917,-346.8197232,1
4.75,5.25,314.3321141,-339.960398,1
5,5,316.7829651,-354.3343472,1
4.8,5.2,318.7500131,-350.5447492,1
4.8,5.2,310.7667534,-346.6689546,1
5,5,315.6892581,-341.7877553,1
5,5,311.7516862,-349.1227971,1
4.8,5,312.1760273,-350.3272154,1
5,5,301.9286736,-353.4072954,1
5,5,307.3011183,-347.9061804,1
4.2,5.4,308.4821569,-345.3157101,1
4.4,5.2,306.8395959,-342.7908662,1
4.6,5,325.203097,-357.46969,1
5,5,324.8000805,-354.7753247,1
4.8,5.2,306.9886784,-343.7348577,1
4.2,5.4,305.6494914,-356.4375858,1
4.8,5.2,298.436997,-354.599063,1
4.6,5,312.5038891,-342.723407,1
5,5,311.7510664,-350.5503269,1
5,5,313.653334,-348.0548335,1
4.4,5.4,314.6407303,-348.3926223,1
4.8,4.8,300.411791,-342.5929618,1
4.8,5,312.8320559,-351.4599146,1
4.2,5,307.4303539,-357.1036655,1
5,5,321.8829874,-355.7106672,1
4.5,5,320.5216519,-344.9170524,1
5,5,303.551537,-330.8097567,1
4.5,5.5,314.5268449,-340.6712502,1
4.6,5.2,341.0282786,-383.7493914,1
5,5,359.5983403,-400.5469079,1
5,-90.25,346.7154158,-393.5796055,1
5,5,329.2552292,-358.5383345,1
5,5,328.2019337,-370.5526216,1
5,5,326.3177884,-353.9630332,1
4.8,5,338.4407402,-362.4597343,1
5,5,329.1056303,-370.6015477,1
4.8,5,328.4285403,-380.3441575,1
4.8,5,330.0601163,-364.2438986,1
4.6,5,350.730788,-404.7990966,1
4.6,5,316.7284868,-366.1930712,1
4.8,5.2,325.3365501,-374.7126407,1
5,5,331.7067196,-361.3739058,1
4.6,5,326.7048071,-367.2477807,1
4.4,5.4,324.252698,-359.6438329,1
5,5.25,314.5261476,-346.7218806,1
5,5,323.9355861,-367.1828373,1
4.8,5.2,329.2249072,-383.2163141,1
4.6,5,321.6742805,-370.0378102,1
4.8,5,319.7112157,-374.9093521,1
4.6,5,332.3823588,-370.524664,1
4.4,5,338.7490493,-372.4725776,1
4.8,5.2,337.8237742,-377.5585238,1
4.6,5,346.0412745,-398.3897542,1
4.833333333,5.166666667,317.8909391,-392.1903966,1
4.666666667,5.166666667,312.2899586,-363.1738304,1
4.6,5.2,315.6945907,-355.7183107,1
4.8,4.8,315.3156191,-355.3324678,1
4.8,5,325.8689995,-355.1380726,1
4.833333333,5,325.5967653,-378.7549834,1
4.6,5.2,317.9676424,-367.709938,1
4.6,4.8,330.9778526,-360.3772679,1
4.5,5,326.0463563,-369.9926172,1
4.833333333,5,340.6166577,-379.8642617,1
4.6,4.8,308.6484738,-342.7532693,1
4.333333333,5,336.6278921,-364.7380955,1
4.666666667,5,343.3065323,-383.4241724,1
4.666666667,5,340.8508176,-391.7909307,1
4.8,5,343.1025957,-373.6720497,1
4.833333333,5,307.8896298,-357.6109704,1
5,5,326.5380707,-365.3143825,1
5,5,327.8784215,-360.5196506,1
4.6,5,319.8735294,-353.4004917,1
4.6,5,310.6614368,-333.1445483,1
5,5,327.8061813,-356.9050243,1
4.833333333,5,323.5388566,-355.7602207,1
4.6,6.2,373.6448697,-415.1809801,1
3.166666667,3.333333333,366.768943,-391.8112733,1
5,5,370.4661216,-401.8628432,1
4.666666667,5,361.1299069,-408.1858644,1
5,5,368.3535657,-408.4412458,1
5,5,367.0256903,-396.9988323,1
4.833333333,4.833333333,354.4341653,-387.1500649,1
4.833333333,5.833333333,337.7443466,-400.6826815,1
4.5,4.833333333,338.8898934,-383.3289299,1
4.857142857,-11.28571429,322.6212887,-393.8626526,1
4.833333333,5,339.5954278,-397.4880874,1
4.571428571,5,323.4775671,-381.7541759,1
4.857142857,5,305.8535651,-359.4243875,1
4.833333333,5,332.5671425,-361.5177606,1
4.666666667,4.833333333,324.2970048,-381.2220091,1
4.833333333,5,334.0981033,-362.5648956,1
4.666666667,5,336.4054953,-379.1131325,1
4.6,5,345.6449739,-375.8008876,1
3,3,330.4324912,-344.3572021,1
4.6,5.2,326.5809503,-350.942673,1
4.6,5,334.7449547,-357.7139133,1
5,5,358.5801824,-376.47608,1
2.5,2.5,381.7800146,-396.5901931,1
4.333333333,5.333333333,351.279089,-379.1263142,1
5,5,361.4758984,-382.355341,1
5,5,351.2480661,-372.2970562,1
5,5,375.5212386,-392.1140772,1
4.8,5,337.695373,-361.7344592,1
5,5,345.3901773,-369.1233157,1
2.5,2.75,348.4366199,-369.2274313,1
4.6,5,342.3543616,-357.6256681,1
4.75,5,347.3199627,-372.4765713,1
4.75,5,348.253057,-377.2180342,1
5,5,352.9001604,-379.0946093,1
5,5,339.1798681,-367.6064489,1
4.8,5,335.2627559,-363.9136457,1
5,5.25,335.7128582,-367.9342486,1
4.75,5.25,318.7027015,-355.4758943,1
4.6,5.2,342.5909514,-371.119246,1
5,5,345.7291319,-373.951491,1
4.8,5.2,338.8847807,-371.6869106,1
4.75,5,356.4594357,-378.8056097,1
4.5,5.25,341.8175239,-365.1411375,1
5,5,343.7266243,-381.6335284,1
5,5,340.6889,-381.2678019,1
4.5,5.25,341.1601467,-376.1445147,1
5,5,339.0647064,-370.7940853,1
5,5,331.1744711,-367.3147713,1
5,5,335.7010346,-366.255911,1
4.5,5.25,332.696109,-370.1627652,1
4.8,5.2,339.1934939,-373.0945843,1
4.75,5,335.3655216,-371.1762241,1
5,5,342.2424149,-374.0211652,1
4.5,5,338.5776204,-374.1724268,1
4.5,5,352.111892,-381.43574,1
4.75,5,355.3636002,-387.1643801,1
4.75,5,355.5933427,-386.8609639,1
4.75,5,348.4468801,-386.7815892,1
5,5,340.5011985,-372.1838197,1
5,5.25,349.9262614,-385.2957584,1
4.75,5,338.3319651,-373.1802881,1
5,5,361.1340586,-397.7392837,1
4.75,5,360.5728973,-394.147628,1
5,5,347.9144745,-383.0073686,1
4.5,5,323.033318,-354.5579827,1
4.75,5,335.0808427,-372.5578638,1
5,5,347.5360557,-391.7735163,1
5,5,350.3671049,-390.9094411,1
4.6,5,330.8300344,-360.5002057,1
4.75,5,328.463632,-368.1669766,1
4.8,5,334.1868173,-390.157951,1
5,5,323.1569896,-371.0715839,1
4.75,5,365.0844503,-398.0820173,1
4.75,5.25,354.3829343,-394.7016861,1
5,5,350.63663,-380.9914385,1
4.6,5.2,341.6407595,-373.4172014,1
4.5,5,351.628279,-383.3974879,1
4.5,5,358.1024042,-388.5525569,1
4.75,5,359.4182214,-390.915181,1
4.75,5,349.781257,-384.8821743,1
4.75,5,352.1862251,-389.1494579,1
4.75,5,351.967814,-386.3024368,1
4.333333333,5.333333333,353.6945754,-391.7899736,1
4.5,5,357.3066058,-388.4041956,1
4.25,5.5,332.221324,-374.683898,1
5,5,327.2207524,-373.9388975,1
5,5,358.6844309,-393.7806455,1
4.6,5,332.9180818,-373.9526696,1
4.8,5,317.1190037,-352.7590761,1
4.75,5,318.5607314,-360.3398814,1
4.75,5,338.632506,-371.0149298,1
4.2,5.2,312.7712109,-348.5344102,1
5,5,324.5646569,-357.5804679,1
5,5,325.0826979,-358.0417178,1
4.25,5,321.0165114,-358.5519163,1
5,4.75,332.1883014,-370.6644939,1
4.75,5,336.9400506,-373.5970839,1
5,5,333.9978808,-364.6704088,1
4.5,5,330.5259913,-365.5972688,1
4.75,5,334.4085161,-367.6240812,1
4.75,5,333.3029201,-364.0750555,1
4.75,5,328.4986763,-369.1346769,1
4.75,5,343.4764646,-380.9755886,1
4.75,5,338.8939272,-376.8587985,1
4.75,5,338.742672,-371.8177621,1
5,5,330.6766693,-365.9368609,1
4.6,5,329.2956955,-363.6882319,1
4.5,5,323.5254927,-357.6478702,1
5,5,319.5848892,-357.8725678,1
4.75,5,315.7519411,-353.4702463,1
5,5,326.2857009,-363.5564911,1
4.75,5,330.6399657,-376.3366128,1
4.4,5,319.4728016,-359.7659712,1
5,5,321.2083267,-354.9236962,1
4.5,5,327.6259859,-365.191951,1
5,5,332.7007337,-375.3157531,1
4.75,5,328.6077041,-362.597648,1
4.8,5,320.543745,-354.2305591,1
4.75,5,318.582774,-351.8225008,1
4.6,5.2,318.7726179,-356.6265276,1
4.75,5,312.2168245,-351.6590229,1
4.8,5,318.4979034,-358.0172747,1
4.75,5,325.7048723,-359.0643852,1
5,5,305.9455593,-349.530476,1
4.8,5,316.6284731,-351.9349803,1
4.75,5.25,315.7204271,-358.9324477,1
4.5,5,322.491163,-358.9915189,1
4.75,5,334.5930731,-371.3191188,1
4.5,5,334.7151814,-377.8300767,1
4.5,5,328.8022968,-366.3098316,1
4.6,5,322.8670133,-361.2800679,1
5,5,315.5163827,-350.2152883,1
4.5,5,316.8822855,-348.2621003,1
5,5,311.4246563,-350.2776185,1
5,5,319.009728,-358.8087804,1
4.75,5,322.0891835,-357.215858,1
4.25,5.25,315.4198708,-359.4169892,1
5,5,327.5510317,-357.2738621,1
4.5,5,318.2066803,-350.4289284,1
4.4,5,322.8266796,-356.1022242,1
4.75,5,317.726591,-352.8903665,1
5,5,320.4056242,-362.8379534,1
4.6,5,321.3912746,-358.3219151,1
4.75,5,314.1570601,-351.4320206,1
4.75,5.25,320.9278941,-360.4916225,1
4.5,5,322.9157772,-362.4117045,1
4.75,5,319.4508889,-357.0368552,1
4.75,5,314.2186547,-352.8604051,1
4.8,5.2,339.6395772,-385.0566609,1
5,5,335.7092636,-385.2744499,1
5,5,317.8655818,-356.048242,1
4.333333333,5,325.4607201,-368.68607,1
4.25,5,324.7777402,-359.8945905,1
5,5,310.7218685,-350.7794736,1
5,5,328.8541508,-364.629832,1
5,5,323.6572881,-361.7733778,1
4.5,5.25,326.4268795,-366.7462913,1
4.8,5,341.3442512,-377.4005486,1
4.5,5,310.784264,-352.1392198,1
4.75,5,311.246817,-355.5434546,1
4.4,5.4,323.6158396,-356.4148056,1
5,5,317.173413,-360.6156212,1
5,5,319.1899695,-363.6867874,1
4.8,5,321.3524849,-360.5463603,1
4.5,5.25,314.0194612,-359.3401012,1
5,5,314.3481615,-361.0975142,1
5,5,321.7935775,-362.4289338,1
5,5,326.6923843,-364.3821672,1
4.75,5,320.0126783,-366.8941025,1
5,5,312.412898,-359.5626099,1
4.75,5,328.6548632,-374.2489282,1
4.8,5,343.4330163,-381.2336406,1
4.75,5,328.9540862,-365.9678917,1
4.4,5.2,309.4816263,-354.2648579,1
4.75,5.25,318.4378126,-356.8836322,1
4.75,5,325.6385126,-366.5424574,1
5,5,329.1190361,-366.3234864,1
4.6,5.2,324.7965245,-368.7327888,1
4.75,5.25,324.3421731,-369.2697169,1
4.75,5,320.7190466,-366.3002985,1
4.75,5,325.0994925,-362.5320022,1
4.75,5,319.2516623,-362.1394829,1
5,4.75,331.3161667,-369.4840592,1
5,5,323.5183748,-366.916665,1
4.6,5.2,326.7914165,-369.2486776,1
5,5,333.9662772,-379.2857835,1
5,5,335.8990315,-371.7483741,1
4.75,5.25,319.8870821,-364.0548548,1
4.25,5,325.0949382,-361.3189907,1
4.8,5,322.4578321,-364.1335614,1
4.75,5.25,320.6912482,-363.7495052,1
4.75,5,320.7335134,-357.795589,1
5,5,317.3278172,-361.2790067,1
4.75,5,324.8064398,-367.7149188,1
5,5,334.45287,-373.8167953,1
4.75,5,325.5022308,-370.6711891,1
5,5,331.4452348,-372.0110762,1
4.75,5,325.9718333,-367.6867668,1
5,5,337.1963982,-382.5770433,1
4.75,5.25,325.8921353,-370.0585407,1
5,5,318.1012365,-361.2985587,1
4.4,5.2,325.2184235,-363.1724312,1
4.75,5.25,321.5389441,-364.0482531,1
4.8,5,321.9098119,-363.7231424,1
5,5,320.6962068,-360.3810935,1
4.4,5,315.5801333,-356.7390487,1
4.75,5,328.0314682,-365.3942688,1
5,5,326.9342182,-371.345923,1
4.75,5,325.5037683,-363.3075653,1
4.75,5,324.543371,-364.969215,1
4.5,5.25,320.721885,-361.316259,1
5,5,329.7032072,-373.1756483,1
4.8,5,324.2724579,-366.5401084,1
4.75,5,322.9406716,-365.659219,1
5,5,331.6367053,-368.8698006,1
5,5,330.0405948,-368.6680524,1
4.75,5,322.1424446,-360.3392243,1
5,5,326.8147994,-366.0463979,1
4.75,5,323.0558218,-365.078946,1
4.75,5,316.5391061,-357.2490988,1
5,5,321.9212704,-367.3066131,1
5,5,318.6671652,-366.5440294,1
5,5,311.5322834,-350.4013828,1
5,5,323.6825351,-367.7471806,1
4.5,5.25,324.3335199,-362.3472059,1
5,5,334.0353615,-378.8624061,1
4.75,5,331.3703715,-370.6990725,1
5,5,331.959529,-372.781789,1
4.75,5,316.4995908,-362.3415363,1
4.5,5.25,316.1589858,-359.316686,1
4.75,5,322.1441025,-369.7348862,1
4.75,5,331.4217548,-374.6093223,1
4.4,5.2,318.2679201,-358.5019969,1
5,5,327.0865503,-360.199026,1
4.8,5.2,324.2239218,-366.057872,1
4.6,5,318.5692933,-355.1906032,1
4.5,5.25,295.9019217,-340.3491908,1
4.8,5,311.4396366,-354.447078,1
4.75,5,319.5857787,-358.4308051,1
5,5,323.1468246,-361.7315358,1
4.8,5,327.182669,-360.9509167,1
4.5,5,325.8050797,-361.5372356,1
4.5,5,321.4600025,-363.066186,1
4.4,5,316.8461639,-355.8324619,1
5,5,320.934797,-354.8070055,1
4.6,5,320.2131129,-353.2277852,1
4.5,5,329.1994793,-369.6073933,1
4.5,5.25,333.9060834,-382.448533,1
4.8,5,337.8221359,-387.9020693,1
5,5,332.3912228,-379.0894652,1
4.75,5,321.6082389,-366.8458896,1
4.6,5,350.7900352,-373.5220452,2
4.4,5,331.1398975,-360.9413944,2
4.8,5,332.3653715,-360.8779702,2
4.6,5,328.6157714,-354.7345672,2
4.6,5,305.1947367,-327.4221174,2
5,5,315.3811768,-335.1596313,2
4.75,5,311.4203843,-329.411119,2
4.4,5,322.0656149,-340.0085919,2
5,5,316.8699881,-334.2852375,2
5,6.2,366.3082675,-410.0002554,2
4.5,5,328.4582186,-375.1297749,2
4.5,-80.5,313.936306,-342.1971495,2
4.6,5,338.7011696,-354.3244387,2
5,5,325.0624718,-339.395848,2
4.8,5.2,316.2130663,-333.2978819,2
5,5,314.5432379,-334.9008658,2
5,5,311.9187838,-323.9350573,2
2.8,3.2,313.7264663,-329.5253514,2
4.75,5.25,321.6868074,-337.0635956,2
5,5,313.7022225,-330.6390796,2
5,5,322.1693689,-335.5654595,2
4.8,5.2,312.8290222,-333.5210671,2
4.75,5,329.0707215,-345.3961858,2
4.75,5,324.4223479,-332.0591945,2
5,5,312.8244935,-327.4049654,2
5,5,324.1732339,-352.5363464,2
4.4,5.2,326.5621842,-354.4215819,2
4.8,5.2,326.5094096,-348.1039585,2
4.8,5,332.7376667,-355.951463,2
4.2,5.4,313.0414561,-346.0812737,2
4.6,5,302.3410666,-331.465419,2
4.6,5.2,307.6893141,-331.9975504,2
5,5,303.296522,-320.8549139,2
4.6,5.2,311.7590006,-336.1570511,2
2.5,2.75,296.7408521,-332.1055417,2
2.6,3.2,315.5127467,-332.484573,2
4.25,5,304.8434094,-318.6633145,2
4.25,5,298.8344639,-314.3919314,2
5,5,344.7756455,-367.1206995,2
4.8,5,302.4845936,-337.8397052,2
4.75,5,311.8561272,-330.6927659,2
4.4,5,309.1574813,-323.9199172,2
4.25,5.25,299.1032759,-320.0410626,2
4.4,5.2,313.8513464,-337.4206787,2
5,5,312.4656309,-335.8864157,2
5,5,313.64841,-337.3370357,2
4.4,5,306.7643743,-328.0825124,2
4.8,5,291.5665698,-319.6776404,2
4.4,5,299.9921336,-328.7684468,2
5,4.75,294.3080919,-316.8673582,2
4.75,4.5,309.3134157,-334.6923449,2
4.4,5.2,304.8019339,-332.526117,2
4.75,4.75,303.6882617,-324.8930232,2
4.75,5.25,313.1712161,-333.2936759,2
4.25,5,322.2171548,-342.215111,2
4.5,5,303.494613,-324.0859692,2
4.6,5,304.4856442,-328.8008866,2
5,5,296.9506932,-321.6646844,2
4.8,5,303.5357689,-330.3836523,2
4.5,5,309.3112772,-325.4551728,2
4.75,5.25,305.7069863,-319.6918447,2
5,5,337.1822606,-362.6469652,2
5,4.8,304.8525927,-332.1104462,2
4.75,5,301.9788749,-317.2943984,2
4.75,5,306.4143748,-322.8368164,2
4.5,5,313.7063446,-334.5118249,2
4.75,5,313.6509222,-331.7634283,2
5,5,316.1519327,-337.6631034,2
5,5,323.5054666,-336.4357053,2
4.4,5.2,312.9389592,-338.2404155,2
5,5,324.1045884,-346.4179543,2
4.5,5,310.523396,-323.1453009,2
4.5,5.25,323.7490037,-342.9382106,2
5,5,312.7465695,-331.9437613,2
4.75,5,328.193266,-342.8741873,2
4.75,5,327.5301641,-348.7625415,2
5,5,327.4136271,-344.0011546,2
4.25,5,333.5808308,-355.3342383,2
5,5,317.0910296,-336.0984037,2
4.8,5,317.3669863,-339.1380425,2
4.5,5,301.11428,-323.3183109,2
4.75,5,317.1177535,-334.7124628,2
4.25,5,309.1795126,-332.9203935,2
2.5,2.75,321.0464667,-337.3328887,2
4.8,5,321.177691,-343.5366246,2
4.2,5,318.5137204,-345.801015,2
4.75,5,307.1639604,-324.7968484,2
4.4,5,309.8736437,-330.3171903,2
4.4,5,308.1832,-331.1667988,2
4.75,5,325.1344354,-343.3284408,2
4.8,5,319.0523014,-346.5677114,2
4.6,5,300.4276176,-341.0288244,2
4.6,5,312.0508467,-337.0224448,2
4.6,5,302.7088373,-331.7337574,2
4.6,5,306.6571938,-333.0767978,2
4.4,5,308.208392,-339.6823054,2
4.6,4.8,288.8525719,-323.1148417,2
4.8,5,301.5185115,-336.8232082,2
5,5,325.5230148,-344.7098887,2
4.75,5.25,325.315584,-352.6251044,2
5,5,321.186858,-346.1069108,2
4.8,5,309.2924008,-333.1877892,2
4.8,4.6,305.9083445,-342.1949999,2
4.6,5,300.2174644,-326.7217355,2
4.2,5,306.0553741,-328.8806958,2
5,4.8,310.302696,-335.8779228,2
4.4,5,298.6157004,-319.9003589,2
4.8,5,310.8105465,-336.8290089,2
5,4.8,317.928475,-346.5277595,2
4.8,5,304.9451411,-328.8906754,2
4.666666667,5,307.4038267,-329.3389637,2
4.4,5,298.0730954,-321.4400915,2
4.833333333,4.833333333,284.4327059,-318.5375146,2
4.8,5,306.1263469,-331.3837235,2
4.6,5,283.8612117,-311.5504453,2
4.8,4.8,286.0495795,-316.1816382,2
2.6,3.2,292.1140834,-324.9513703,2
4.6,4.6,274.4853286,-303.4685236,2
5,5,304.5989287,-330.8645061,2
4.666666667,4.833333333,293.0204631,-319.3309229,2
5,5,310.5014235,-331.2031171,2
4.166666667,5,296.1882937,-320.1852559,2
5,4.8,298.200669,-327.9061883,2
4.833333333,5,308.1728495,-330.6610902,2
4.833333333,5,311.7271783,-335.8816044,2
5,4.6,309.08337,-332.7319294,2
5,4.8,317.7253523,-339.6075873,2
4.833333333,5,316.2499544,-341.7142332,2
4.8,4.8,298.8465749,-324.3443881,2
4.333333333,5,304.5862998,-324.3497445,2
2.8,3,300.7069317,-323.4883427,2
4.8,5,298.9690533,-323.4485148,2
4.666666667,4.666666667,310.3778331,-335.4290307,2
4.75,4.75,335.5624489,-364.1949661,2
-2.75,-1.75,349.193492,-359.0636279,2
1.666666667,2,346.3331483,-352.4255093,2
4.75,4.75,350.7564072,-356.3288202,2
-1.666666667,-1.666666667,357.927656,-363.0058406,2
-5,-5,366.9880284,-373.5620234,2
4.666666667,5,363.3542393,-369.0618777,2
4.333333333,5.333333333,368.0362293,-381.6257177,2
1.333333333,1.666666667,353.1766802,-362.2984796,2
5,5,360.8342035,-375.7600465,2
2.25,2.5,344.545884,-354.5604821,2
4.25,5,350.2042949,-355.4927133,2
5,5,352.642307,-366.1143655,2
5,5,350.4498379,-362.7524848,2
5,5,353.429002,-367.64066,2
5,5,339.9106245,-349.336911,2
4.75,5,347.2490338,-356.0967121,2
4.333333333,5,348.0729611,-355.1470982,2
4.5,5.25,350.3924257,-363.0736229,2
4.666666667,5,347.7463955,-361.8982948,2
5,5,352.820959,-367.3883038,2
5,5,355.4889653,-367.2385127,2
2.5,2.5,322.2894155,-334.240337,2
2.5,2.5,325.7051876,-334.7633623,2
4.75,5,350.1637643,-357.0875878,2
4.666666667,5,359.3973628,-367.4708502,2
4.666666667,5,343.3459758,-351.5481746,2
2,2.75,329.9603764,-339.7817423,2
4.75,5,338.8282119,-345.9404502,2
4.75,5,361.307795,-373.0134377,2
4.75,5,350.1527968,-361.3174264,2
4.5,5,356.9333588,-367.4063753,2
2,2.75,340.8716881,-347.6132837,2
4.5,5,348.9825597,-367.8963969,2
4.333333333,5,338.3429522,-348.5454457,2
5,5,354.0306836,-358.1707474,2
4.25,5.25,341.0386726,-353.4184356,2
4.666666667,5,333.1443001,-348.3429868,2
4.25,5,329.0887477,-338.8860622,2
4.666666667,4.666666667,342.2602182,-356.6602206,2
4.5,5,329.5241578,-337.810942,2
4.666666667,5,337.1938834,-345.6226163,2
1.666666667,1.666666667,351.2135918,-360.1924289,2
4.75,5,356.5472191,-374.1149483,2
5,5,345.0829956,-359.413187,2
5,5,334.8309712,-346.8700354,2
4.75,4.75,329.9502955,-343.4436768,2
5,5,342.5548233,-351.3865883,2
4,5,333.7402208,-344.5943304,2
5,4.75,341.8749622,-356.2820682,2
5,5,355.4291022,-366.8248788,2
4.75,5,353.2170697,-365.8717626,2
4,5.25,330.5477531,-347.8482323,2
5,5,341.5964501,-356.6249704,2
4.75,4.75,336.4539862,-350.0567004,2
4.75,4.75,333.7754583,-349.7626865,2
5,5,341.4641607,-349.7835221,2
5,5,338.0706833,-353.5122593,2
5,5,349.6490212,-366.9891549,2
4.666666667,5,349.7441101,-361.8379353,2
4.5,5,333.7916476,-344.4980387,2
4.25,5,351.0723328,-363.9605634,2
5,5,351.5400569,-368.2630932,2
4.75,5,341.9968707,-352.2916829,2
4.666666667,5,335.4000597,-351.5047542,2
5,5,353.5401747,-362.4814339,2
4.75,5,345.4402113,-356.0714595,2
4.5,5,338.0011909,-352.2995341,2
5,4.75,339.9785916,-354.8988208,2
5,5,341.63069,-360.0267117,2
4.333333333,5,335.0701453,-347.6773598,2
4.666666667,5,354.1182079,-366.9529872,2
4.75,5,332.365095,-349.4282451,2
4.75,5,341.6300947,-350.0781149,2
4.666666667,5,344.0063558,-352.0859112,2
4.666666667,5,346.7157143,-356.3862204,2
4.75,5,335.6091888,-353.0153417,2
4.333333333,5,345.0942134,-351.8356999,2
5,5,349.931048,-362.4657515,2
4.333333333,5,334.4919011,-346.8408345,2
4.75,5,347.7393064,-359.5091422,2
2.5,2.5,346.3673498,-357.940154,2
4.75,4.75,338.5809565,-351.1551322,2
5,5,341.3723627,-352.4712214,2
4.75,5,326.2418936,-341.418653,2
4.666666667,5,331.0129047,-346.1795372,2
4.75,5,338.9234811,-358.6782207,2
5,5,340.956498,-360.2568013,2
4.5,5,355.7329145,-369.4756541,2
4.75,5,360.917314,-374.7226163,2
5,5,344.9865896,-363.3045353,2
5,4.75,344.1188887,-355.3606971,2
5,4.666666667,338.0900941,-352.949668,2
4.5,5,346.5926557,-364.9030441,2
4.5,5,345.2849398,-359.9563418,2
4.333333333,5,342.5749833,-353.3419153,2
4.666666667,5,345.0909309,-359.8911549,2
4.75,5,342.1506476,-355.6782171,2
4.75,5,338.5876074,-358.4688608,2
5,5,341.1491015,-356.9540229,2
4.25,5,330.7171221,-342.1593936,2
5,5,340.1983131,-352.6632891,2
4.333333333,5,342.2121595,-353.611487,2
5,5,339.1269556,-353.7067454,2
5,5,344.4735144,-355.0075561,2
5,4.75,350.6656144,-363.7688402,2
4.666666667,5,349.9185459,-362.6670406,2
5,5,349.5959409,-363.4920443,2
4.666666667,5,358.696463,-371.829375,2
4.75,4.75,345.962997,-364.5000628,2
4.333333333,5.333333333,332.0357417,-351.7850231,2
4.333333333,5,350.922974,-364.2500777,2
5,5,342.4405252,-353.7690775,2
4.666666667,5,338.6293298,-356.2953813,2
4.75,5,339.4866252,-353.958432,2
4.75,5,350.931257,-370.3544621,2
4.25,4.25,151.3928295,-92.82427085,3
4.6,4,149.2662477,-85.00298887,3
4.6,4.2,158.055517,-93.60580467,3
4.5,4,155.2024076,-89.89183281,3
4.4,4.2,145.991962,-81.92753832,3
4.4,4.2,127.4087054,-77.95217008,3
4.6,4.2,138.7879359,-79.13468964,3
4.4,4.4,121.4948779,-64.3317276,3
4.4,4.2,129.455556,-74.59369994,3
4.6,4.2,131.0106291,-77.48128402,3
4.25,4.5,141.6334426,-81.66620928,3
4.8,4.2,137.0964731,-72.00267816,3
4.5,4.25,147.4183747,-87.87161623,3
4,4.2,142.9017974,-84.64119151,3
4.5,4.25,135.6972149,-75.45449378,3
4,4.5,142.9504729,-81.97243838,3
4.2,4.2,152.6954198,-88.77089716,3
4.25,4.5,145.6260379,-84.70284902,3
4.25,4.5,145.2968288,-90.24456241,3
4.6,4.2,141.1541256,-83.2939099,3
4.4,4.6,131.0208477,-68.31420492,3
4.5,4.25,139.5069038,-72.94980682,3
-1.2,2.4,156.3217307,-65.17175207,3
66.2,4.2,119.4199094,-77.87659823,3
4.2,4.4,146.7998281,-84.11679682,3
4.5,4.25,144.8354772,-77.92004992,3
4.2,4.6,153.2455599,-77.33456611,3
-38.25,3.5,120.3186064,-75.34234898,3
4.5,4,144.6897706,-76.40213126,3
4.4,4.4,142.969631,-76.86917922,3
4.2,4.2,133.0503687,-69.28601381,3
4.6,4,142.9432027,-79.46266085,3
4.4,4.2,140.7019383,-78.35344756,3
4.6,4,142.8576942,-82.7302573,3
4,4.4,148.0856803,-77.65479623,3
4.2,4.2,145.4340629,-82.73258309,3
4.6,4.2,139.8214696,-71.61450262,3
4.5,4.5,141.5270675,-73.25525408,3
4.5,4.25,143.7805645,-73.59934656,3
4,4.5,142.2239556,-68.99370973,3
4.6,4.4,151.6583289,-69.43903796,3
4.4,4.2,149.8667998,-70.7004922,3
4.4,4.2,151.7066798,-73.69197616,3
4.2,4.4,152.6951251,-74.77973109,3
4.5,4.25,147.5631638,-69.53554573,3
4.8,4,142.4465818,-73.06879653,3
5,4,153.191203,-72.07738356,3
4.2,4.8,155.2351516,-82.48114602,3
4.6,4.2,158.9192709,-81.18568977,3
4.6,4.2,149.1693746,-73.87751989,3
4.4,4.2,146.8844543,-75.31608309,3
4,4.25,135.6402493,-67.18373492,3
4.25,4,143.5537591,-65.85974843,3
4.25,4.25,141.3691108,-66.29483217,3
4.75,4,134.4098623,-64.30708628,3
4.75,4,143.8548166,-74.92808554,3
4.75,4.25,140.9523574,-72.06763536,3
4,4.666666667,155.3061587,-82.72871357,3
4.666666667,4.333333333,137.9735718,-68.30807458,3
4.75,4.25,149.199932,-74.65275072,3
4.75,4.25,160.4592338,-82.98611959,3
4.25,4.5,141.4139449,-74.90518846,3
4.25,4.25,136.7895306,-72.6475036,3
4.5,4,138.7719925,-69.91853682,3
4.5,4.25,139.5210107,-71.2093384,3
4.25,4,140.0097764,-74.25692195,3
4.75,4.25,134.6360366,-67.01837108,3
4.5,4,141.3890638,-71.74577139,3
4,4.5,145.5013551,-78.9210854,3
4.25,4,151.1377151,-85.0781731,3
4.5,4.5,147.4845455,-76.73823285,3
4.25,4.25,156.4199483,-85.36375981,3
4.25,4.25,155.0694827,-85.25686937,3
4.6,4.4,162.0541508,-91.03739147,3
4.75,4.25,153.8270344,-81.67427227,3
4.25,4,155.4694083,-85.1276706,3
4.5,4.5,151.0092608,-79.27893186,3
4.25,4.25,162.6206815,-95.80774298,3
4.5,4.5,156.590775,-83.78782418,3
4.25,4.75,149.7183101,-84.80502645,3
4.75,4,137.8542386,-73.4654793,3
4.5,4.25,139.8397498,-71.36813273,3
4.5,4.25,145.52409,-81.1898957,3
4.5,4.25,149.489694,-78.54320307,3
4.25,4.25,148.2575481,-79.99108826,3
4.5,4.25,148.5661383,-81.44582128,3
4.4,4.4,167.0630878,-94.26148245,3
4.75,4.25,158.7224574,-86.43232916,3
4.25,4.5,154.6183942,-88.88918021,3
4.5,4,163.3958884,-97.79292941,3
4.5,4.25,170.1431288,-98.20250658,3
4.5,4.25,168.5233602,-100.7508412,3
4.75,4.25,167.0605329,-96.51246971,3
4.5,4,168.7582159,-99.84442702,3
4.25,4.5,171.9256601,-102.0036998,3
4.25,4.75,166.0080226,-98.59751763,3
4.5,4.5,165.5670053,-98.6464223,3
4.666666667,4,165.8629721,-97.47657604,3
4.5,4.5,160.7516782,-94.53218777,3
4.5,4.5,171.2351361,-101.4448232,3
4.5,4.25,175.325989,-106.2865178,3
4,4.25,167.2551152,-102.3626549,3
4.5,4.25,169.3215272,-100.8152029,3
4.25,4.25,165.894557,-99.27984412,3
4.75,4.25,171.7477327,-100.4595842,3
4.5,4.5,165.0385801,-98.77550394,3
5,4,174.4617204,-103.5147903,3
4.75,4.25,165.996527,-98.67745954,3
4.75,4,170.3624384,-99.6912292,3
4,4.5,168.5108099,-105.5289212,3
4,4.666666667,163.500324,-98.3923028,3
4.25,4.75,174.5840625,-103.9834698,3
4.25,4.5,166.7591524,-100.8914851,3
4.75,4,172.754075,-99.716651,3
4.25,4.75,165.9292073,-99.71646953,3
4.5,4,166.8397737,-103.9109297,3
4.75,4,162.630082,-94.03633345,3
4.666666667,4.333333333,165.3606359,-98.39391615,3
4.25,4.25,172.5949388,-104.3960609,3
4.5,4.25,164.885679,-99.77974638,3
4,5,161.4864046,-97.64675448,3
4.5,4.5,162.7266828,-94.62716637,3
4.666666667,4,161.5040912,-93.87791346,3
4.75,4.25,157.4047715,-89.25727011,3
4.75,4.25,165.5948741,-101.0503842,3
4.333333333,4,169.9417772,-103.28031,3
4.75,4,164.6437809,-96.66418238,3
4.333333333,4.333333333,159.9960808,-94.57159584,3
4.75,4.25,166.4954944,-99.36365132,3
4.75,4.25,165.0336417,-95.2648149,3
4.75,4.25,168.0302153,-99.94706307,3
4.25,4.25,167.8805973,-105.999401,3
4.5,4.5,161.9073061,-96.71022941,3
4.666666667,4,169.2408061,-103.4606252,3
4,4.75,167.7444247,-107.3432981,3
4.75,4.25,165.3140867,-98.58973667,3
4.5,4.5,171.0677308,-106.7586447,3
4.5,4.5,165.5983812,-103.5461864,3
4.75,4.25,162.0297436,-95.83206844,3
4,4.5,170.5169796,-106.5393997,3
4.5,4.5,160.4640503,-98.6986895,3
4.75,4.25,164.932365,-100.6030642,3
4.5,4.25,167.0591823,-102.0673053,3
4.5,4,170.4983352,-105.5114953,3
4.333333333,4,170.2495065,-105.5948052,3
4.75,4.25,159.222987,-97.20733865,3
4.25,4.5,166.3708343,-104.1320482,3
4.5,4.5,165.1306754,-100.6070187,3
4,4.75,166.6612649,-108.4576739,3
4.666666667,4.333333333,163.7300447,-98.80018264,3
5,4,168.1044775,-103.3115576,3
4.25,4.25,161.4837661,-98.48072944,3
4.5,4.5,156.791775,-92.38922114,3
5,4,161.3813265,-97.59069064,3
4.75,4,163.0901395,-96.79866258,3
4.5,4.25,163.8418795,-100.086836,3
5,4,162.0480506,-97.59946398,3
4,5,161.5379695,-102.2482838,3
4.75,4,168.0580657,-103.949197,3
4,4.333333333,167.0759636,-106.4414873,3
4.25,4.75,161.6547634,-96.73499375,3
4.25,4.75,168.4969519,-104.5930159,3
4.75,4.25,161.3968318,-96.14946023,3
4.75,4.25,165.2651429,-101.5054991,3
4.333333333,4.666666667,169.1238067,-107.1367581,3
4.75,4.25,159.5474117,-99.10485483,3
4.75,4,173.4045898,-104.446854,3
4.75,4.25,161.4603026,-98.70062459,3
4.75,4,175.4029243,-112.3988719,3
5,4,164.514207,-100.7649977,3
4.25,4.5,165.4620608,-105.7554388,3
4.25,4.25,168.2347354,-108.3264308,3
4.75,4.25,159.5841952,-97.09802574,3
5,4,165.6391085,-101.8767249,3
5,4,167.3974113,-99.95107997,3
4.333333333,4.666666667,162.3437134,-105.3277372,3
4.5,4,166.2116371,-100.7405518,3
4.75,4,169.1722054,-107.1735991,3
4.25,4.5,160.6420885,-99.5469877,3
4.75,4.25,162.4330424,-96.83168755,3
4.25,4.25,170.2210049,-102.700743,3
4,4.25,162.3130284,-101.4434944,3
4.75,4,156.4047388,-96.20621889,3
4.25,4.5,154.5131682,-95.60248492,3
4.75,4.25,157.7240204,-98.55134033,3
4.75,4.25,154.1637842,-91.74516617,3
4.333333333,4.333333333,159.7749293,-96.55388405,3
4.25,4.75,155.7989656,-98.86433815,3
4.5,4.5,164.4026046,-100.0823497,3
4.5,4.25,157.2841692,-92.55956959,3
4.666666667,4.333333333,156.504406,-92.71624998,3
4.5,4.25,153.9987387,-94.40139002,3
4.25,4.5,163.6662264,-98.30612935,3
5,4,155.9167199,-92.14931251,3
4.5,4,161.9813045,-100.7823751,3
4.333333333,4.666666667,157.3286536,-95.20925771,3
4.75,4.25,157.8574391,-91.37914309,3
4.75,4,160.4670375,-97.58366266,3
5,4,158.4340936,-93.65810032,3
4.5,4.5,153.6189725,-94.51231524,3
4.666666667,4,158.3066695,-95.04822152,3
4.75,4.25,160.1608051,-98.17824581,3
4.5,4.5,156.8678653,-95.99602838,3
4.5,4.25,159.7614339,-93.90599528,3
4.25,4.5,156.0540374,-94.42102785,3
4.5,4.5,157.1237155,-96.05411319,3
4.5,4.25,163.7577879,-102.339784,3
4.5,4.25,161.4416575,-99.65760632,3
4.25,4.75,163.5149966,-100.1735689,3
4.5,4.5,165.6597461,-99.3726559,3
4.25,4.25,167.5713939,-108.8586909,3
4.666666667,4,159.6821511,-97.1836675,3
4.25,4.25,161.6123414,-100.749189,3
4.25,4.75,163.41149,-102.761258,3
5,4,156.7228667,-93.03769302,3
4.666666667,4.333333333,159.6410549,-97.6850985,3
4.6,4,163.2939045,-99.58666873,3
4.25,4.5,161.7187014,-103.4601909,3
4.5,4.25,152.2658575,-85.08962245,3
4.25,4.75,165.1900166,-97.92825367,3
4.5,4.25,162.4151474,-97.30955317,3
4.5,4.5,156.6001475,-97.86354101,3
4.5,4.5,151.7375243,-91.08327726,3
4.5,4,153.90771,-80.30501216,3
4,5,163.6140286,-100.0605587,3
4.25,4.5,164.5430667,-100.8026638,3
4,4.5,143.3184756,-88.46972296,3
4.25,4.5,134.6156966,-76.64675412,3
4.5,4.5,156.743412,-97.84673208,3
4.666666667,4,148.8089637,-89.50446739,3
4,4.25,155.416879,-94.88662711,3
4.75,4.25,156.4902085,-89.90898798,3
4.25,4.5,163.9035797,-106.0999333,3
5,4,163.4342354,-98.44705095,3
4.75,4.25,163.0176219,-96.80521471,3
4.75,4.25,155.8698568,-96.25127427,3
4.5,4.5,167.72763,-103.3126731,3
4.75,4,157.0993365,-93.37241503,3
4.25,4.5,156.7919915,-101.1366411,3
4.75,4.25,159.805905,-95.28487791,3
4.5,4.25,166.3952662,-101.5754661,3
4.25,4.5,155.2928859,-95.12076387,3
4.75,4,162.7734855,-95.76459786,3
4.333333333,4.333333333,159.6843301,-101.0741902,3
5,4,163.2292001,-96.55177266,3
4.25,4.25,159.4538641,-101.4073785,3
4.5,4,163.3877401,-100.0147628,3
4.25,4.25,159.8953401,-94.63313582,3
4.75,4.25,155.50364,-89.28261681,3
4.5,4.5,151.5124487,-92.64777503,3
4.333333333,4.333333333,150.227337,-91.56978655,3
4.5,4,152.7119177,-92.36035966,3
4.5,4.25,152.7407455,-92.08674393,3
4.5,4.25,160.0930178,-95.84304603,3
4.25,4.25,158.6562562,-98.57481293,3
4.5,4.5,157.126731,-95.69309809,3
4.5,4.25,160.0501789,-98.88338267,3
4.5,4.5,163.4790578,-102.4111966,3
4.25,4.25,155.0440362,-95.12100798,3
4.75,4,160.4798488,-99.25246333,3
4.666666667,4,153.1995954,-92.27268809,3
4,4.75,157.5542755,-99.26089431,3
4.75,4.25,155.8979127,-95.8282659,3
4.5,4.25,158.0983684,-99.61914671,3
4.5,4.25,155.795592,-94.18166184,3
4.666666667,4.333333333,159.6045565,-100.0669828,3
4.25,4.25,157.4928058,-96.02966891,3
4.5,4.5,165.6733518,-104.7163512,3
4.75,4,160.6841327,-99.21437061,3
4.5,4,158.0906441,-97.3938505,3
4.75,4.25,151.2518015,-86.62274033,3
4.25,4.5,157.0160938,-93.59468006,3
4.5,4.5,164.3200534,-101.1256014,3
5,4,158.7417807,-94.75049746,3
4.5,4.5,153.1463303,-92.61441029,3
4,4.25,160.9663445,-103.421807,3
5,4,154.2524533,-93.00355194,3
4.75,4.25,157.022696,-94.42342568,3
4.5,4.25,166.0107583,-106.7410685,3
4.75,4,153.2016713,-93.10533981,3
4.666666667,4.333333333,161.0202512,-98.03306287,3
4.75,4.25,158.3530769,-97.60060914,3
4.5,4.5,161.2031629,-99.8254045,3
4.75,4,158.2158692,-96.72847296,3
4.75,4.25,155.1887226,-96.36651845,3
4.5,4.25,158.5723808,-97.34964196,3
4.75,4.25,156.5878092,-97.18521758,3
4.75,4.25,156.9769746,-95.75522216,3
4.5,4,157.9473469,-96.05360901,3
4.333333333,4.666666667,161.6783312,-98.52696724,3
4.75,4,157.4960854,-94.96870476,3
4.5,4,154.2200187,-91.93601732,3
4.25,4.5,166.0805059,-104.477021,3
4.333333333,4.333333333,170.9322447,-106.5019346,3
4,4.25,158.6049309,-102.1545517,3
4,4.5,155.4739467,-100.0217369,3
4.25,4.5,153.4744334,-98.19198284,3
4.666666667,4,162.351105,-98.97415859,3
4.75,4.25,155.2041721,-96.58076709,3
4.5,4,156.20586,-96.72796771,3
4.666666667,4,158.1238553,-96.48889514,3
4.25,4.75,160.6543084,-99.83773607,3
4.5,4.5,159.974654,-100.5920065,3
4.75,4,156.1786961,-95.48212925,3
4.25,4.25,163.0862308,-98.81299721,3
4,4.2,93.62820001,-70.88382797,4
4,4.2,93.16777593,-79.54108973,4
2,2,87.34794139,-74.76850666,4
4,4.4,91.03574092,-71.06839833,4
4.2,4.2,86.42523681,-66.75266961,4
2,2,94.10221342,-79.36410255,4
4.2,4,105.4708876,-82.98296065,4
2.2,3,103.2720343,-83.35865121,4
4.25,4,96.05580559,-74.5531787,4
4.4,4.2,108.0835008,-65.25023587,4
4,4.4,95.0600132,-57.82054888,4
4.666666667,4,109.2438598,-78.39277506,4
4.6,4,104.2343567,-63.64908055,4
4.25,4.25,99.61807739,-66.47669927,4
4.5,4,109.4354142,-72.71294806,4
4,4.5,101.9197368,-72.4282623,4
4.25,4.5,111.0159041,-76.75987754,4
4,4.8,115.0910346,-68.7064388,4
4,4.5,125.637722,-78.18399044,4
4.2,4.2,119.1270156,-79.5514654,4
4.5,4.25,107.9211323,-70.2020533,4
4.5,4,111.8056985,-83.86932557,4
4,4,104.8983058,-83.66301507,4
4.25,4.25,100.333901,-72.82395656,4
4.5,4.5,114.9112231,-76.76824579,4
4.5,4.25,139.5971068,-84.90017585,4
4.25,4.75,117.0543456,-88.13031164,4
4,4.2,111.9053586,-88.46380389,4
4.2,4.2,115.4140412,-86.48641908,4
4.25,4,136.4400921,-82.00383797,4
4,4.25,115.3151722,-53.368013,4
4.2,4.2,107.4933568,-53.68856233,4
3,2.4,105.6877382,-96.4601212,4
4.25,4.25,120.7304942,-79.89985077,4
4.2,4.2,136.2610557,-76.87000148,4
4,4.5,120.9775778,-78.36412997,4
4.2,4,107.6206062,-88.79156965,4
4,4.5,118.0320494,-72.91759178,4
2,2.25,107.9674271,-92.12135691,4
4.8,4,107.4095676,-77.56957687,4
4.2,4.4,103.1391125,-84.80716743,4
-2.2,-2.6,104.1058993,-79.99058937,4
4.2,4.4,112.5717037,-91.49133009,4
4.2,4.2,135.6708303,-81.96936382,4
4,4,136.1966585,-69.01553669,4
4.4,4.2,126.1909693,-104.2567105,4
4,4.2,126.2744916,-97.39618905,4
4,4,128.16638,-86.19159166,4
4,4.25,130.5396481,-82.31091548,4
4,4.2,124.665428,-93.8524676,4
4,4.8,127.6125193,-82.53087996,4
4.4,4.2,127.1496057,-81.54233528,4
4.75,4,116.026927,-76.31066488,4
4,4.4,134.633961,-52.60588573,4
4.25,4.25,137.6977059,-68.57472023,4
4,4.25,126.5542906,-63.67141358,4
4.5,4,123.8737892,-65.14750833,4
4,4.25,120.6495311,-61.59431603,4
4,4.25,140.9666304,-67.95241684,4
4.25,4,140.3175326,-65.53611923,4
4.5,4,134.5374516,-67.0181639,4
4.2,4.2,134.2285025,-66.18884389,4
4.25,4.25,136.4178185,-77.59785358,4
4.2,4.2,125.2930469,-79.45115099,4
4,4,129.9873663,-93.37933404,4
4.2,4.6,136.3391623,-76.58268815,4
4,4.25,121.5658968,-66.39299392,4
4,4,119.6160541,-71.16059775,4
4.5,4,112.2068782,-53.98787596,4
4,4,125.7570553,-69.42142158,4
4.5,4,121.347396,-58.90491786,4
4.2,4.2,136.5840017,-66.59633309,4
4,4,138.4061027,-89.15998322,4
4,4.25,123.0506192,-82.83711477,4
4,4.4,114.2777368,-84.89176517,4
4.5,4,126.7085121,-85.9855233,4
4.4,4.2,123.3469904,-78.43060825,4
4.25,4.25,126.615465,-85.16216832,4
4,4.25,116.6691595,-73.64904455,4
4.2,4.4,118.3253127,-74.84188966,4
4.5,4.25,112.8489718,-82.75005835,4
4.5,4,119.6038969,-90.20633926,4
4.25,4,108.7611084,-81.75902548,4
4.75,4.25,107.5916763,-75.93463629,4
4.2,4.6,118.9988655,-86.03528735,4
4.5,4,117.0129795,-84.05045252,4
4.25,4,112.4273773,-80.91673666,4
4,4.25,123.9058643,-89.94635822,4
4.25,4.25,116.0927161,-75.42506326,4
4,4.25,115.9953767,-85.55248455,4
4.25,4.25,117.9021367,-71.21306031,4
4.5,4.25,116.5853626,-67.99630788,4
4,4,118.9964439,-84.14329615,4
4,4.5,126.0949185,-95.97303724,4
4.2,4.4,118.0479304,-85.49203969,4
4,4.5,117.9749306,-94.28269696,4
4.25,4.5,118.6057152,-92.51306068,4
4,4.25,122.3026965,-96.56223454,4
4,4.75,116.3607156,-91.06966306,4
4.25,4.75,112.3678405,-86.93826526,4
4,4.25,128.4592971,-88.59793878,4
4,4.25,133.276037,-76.42269312,4
4.2,4.6,122.4891652,-80.02378396,4
4.25,4.25,127.3104725,-91.26421073,4
4,4,127.3068529,-94.92909555,4
4.25,4.25,122.6710649,-101.8379721,4
4.4,4.2,116.1883494,-87.10503871,4
4,4,121.4228041,-93.55906874,4
4.25,4.25,113.2936694,-88.29013538,4
4.5,4.5,131.4710875,-71.83141015,4
4,4.5,127.2163566,-69.10335363,4
4,4,133.1389454,-73.38246339,4
4.25,4,119.0486969,-86.10303439,4
4,4.25,117.9652127,-92.61129663,4
4,4.25,120.8308161,-72.75786406,4
4,4.25,116.6124538,-80.17612885,4
4.8,4,116.1914241,-71.73703375,4
4.25,4,119.707618,-72.61351566,4
4,4.5,117.5654754,-83.40234149,4
4.25,4.5,119.2570232,-100.7945778,4
4,4.4,112.7016237,-87.4489887,4
4,4.5,110.6694281,-84.75481828,4
4.5,4.25,113.2582687,-92.02637881,4
4,4.5,116.3790748,-92.82958598,4
4.5,4.25,110.0536939,-78.90915172,4
4.25,4.5,129.2643515,-87.25480751,4
4.25,4,114.528567,-75.74946523,4
4.2,4,90.61057676,-65.68180374,4
4.2,4.2,126.5528443,-88.49581093,4
4,4.25,98.70959076,-71.96842536,4
4,4.2,118.9972322,-82.24141156,4
4.25,4,112.7616498,-86.15736849,4
4,4.4,112.8457649,-83.26288372,4
4,4.25,110.2926245,-90.97053895,4
4.2,4.4,105.2524112,-93.32644725,4
4.25,4.25,118.9853924,-89.25292951,4
4.2,4.4,127.5274494,-90.19716475,4
4,4.25,136.9286122,-90.78307271,4
4,4.4,134.8353414,-77.75869497,4
4.25,4,144.8410879,-92.97944092,4
4.2,4,111.1800088,-76.19753797,4
4.5,4,113.8120073,-88.4206671,4
4.5,4,129.2627995,-81.2405048,4
4.5,4.25,129.3514244,-93.90727664,4
4.25,4.5,125.6446255,-100.1009316,4
4,4.6,129.8255429,-95.24433157,4
4.25,4.5,110.1887188,-94.85037026,4
4.25,4.25,121.6437957,-77.48103469,4
4,4.2,124.7926247,-103.0768903,4
4,4,126.3722706,-78.55004419,4
4,4.25,112.3358265,-68.73909842,4
4.2,4.6,108.0713081,-53.09582455,4
4,4,128.7296467,-83.21350866,4
4.5,4,115.5423597,-65.97597269,4
4.25,4.25,114.2593317,-78.38783293,4
4.5,4.25,108.2168465,-71.93354752,4
4.5,4.25,121.2316953,-73.10416451,4
4.5,4.25,125.0689974,-74.17859642,4
4.4,4.6,122.0381239,-86.98063116,4
4,4,124.5026576,-83.09028961,4
4.5,4.25,124.9362554,-94.9695302,4
4.5,4.25,116.1314516,-92.36942997,4
4,4,115.1774873,-99.74391348,4
4,4.5,119.3837318,-81.01169968,4
4,4.25,123.0818837,-86.89742066,4
4.6,4.2,126.1720307,-85.55437846,4
4.25,4.25,122.251571,-83.57136249,4
4.25,4,124.4099769,-92.45813594,4
4,4,122.2424156,-96.78670786,4
4.25,4.25,121.5941014,-91.01783671,4
4,4.6,119.084995,-93.63726422,4
4,4.25,127.4689257,-95.10796519,4
4,4.25,130.2347098,-95.82115246,4
4.25,4.25,125.1917725,-92.82965,4
4,4.25,135.0001141,-87.14962443,4
4,4.8,130.1124007,-86.784189,4
4.25,4.25,129.5566243,-84.21139897,4
4.5,4,126.8993915,-87.2673748,4
4.75,4,119.5080717,-89.48757142,4
4.25,4.5,113.9169542,-91.43350315,4
4.2,4,115.8950648,-94.34414081,4
4,4.25,116.6674948,-98.74997924,4
54.75,-2,113.5095622,-96.14807038,4
-20.6,4.4,143.46327,-62.36679125,4
4,4.6,105.2684367,-50.76100618,4
4.2,4.4,117.2316123,-58.94853021,4
2.4,3,87.33913618,-42.3836123,4
4.25,4.25,130.9328827,-37.81607086,4
4.25,4.25,130.5934339,-26.8534918,4
4,4,110.3308893,-28.39290422,4
4,4,93.12911855,-30.04507216,4
4,4.2,86.16920023,-33.35882603,4
4,4,100.76285,-34.09986536,4
4,4.25,94.65148703,-34.49007946,4
4,4,78.50937182,-31.78039281,4
4,4.2,96.76446425,-33.01286165,4
4,4.2,108.389351,-18.24359715,4
4.25,4.5,118.8548892,-32.00621705,4
4,4.25,118.5396994,-20.40148772,4
4,4,114.5664569,-20.79930011,4
4,4.4,119.5725117,-28.02939145,4
4,4,115.0031248,-21.52417854,4
4.25,4,124.7021284,-24.56863719,4
4.25,4,124.5789242,-11.86743056,4
4,4.5,132.015052,-10.96028479,4
4,4.2,148.9303467,-46.33307471,4
4,4.25,133.5197394,-31.25163606,4
4,4.5,124.2546546,-24.09170785,4
4.5,4.25,119.7141183,-35.44776077,4
4.2,4,113.9177986,-38.53342148,4
4,4.5,108.13435,-14.69491229,4
4.2,4.4,115.253071,-46.48521815,4
4,4,110.4551556,-30.10940652,4
4.25,4.25,95.09917918,-16.42686533,4
4,4,107.2246767,-19.58428571,4
4,4,109.0664921,-21.21793243,4
4,4.2,102.557036,-28.45094533,4
4,4,109.4547854,-14.99768186,4
4,4.2,96.02898886,-19.48498379,4
4,4.25,99.87646414,-23.22617543,4
4,4.2,99.0994211,-26.06007823,4
4,4.25,103.0101731,-26.83814754,4
4,4,101.334021,-23.45112774,4
4,4,105.528693,-38.33431287,4
4,4.5,123.422976,-29.84845011,4
4.2,4.2,109.7494827,-25.35442194,4
4,4.25,107.4490448,-28.40286966,4
4,4.2,101.496182,-22.6147305,4
4.5,4,116.475451,-17.82341583,4
4.2,4.2,125.0158323,-27.13315083,4
4,4,116.9414713,-38.75890775,4
4,4.4,101.1276562,-33.54156343,4
4,4,87.22180669,-30.19219075,4
4,4,84.63594262,-30.26650414,4
4,4.2,109.3027517,-26.02933047,4
4.5,4.25,114.2870929,-25.64981548,4
4,4.6,119.9992912,-25.00949006,4
4,4,126.0340208,-41.87569067,4
4.4,4,106.4225678,-33.53798737,4
4,4.2,106.5809435,-43.13347902,4
4.25,4,109.4890773,-30.9812332,4
4.5,4,90.39079377,-13.48734058,4
4,4.5,101.1567493,-26.10503628,4
4,4,85.00927721,-27.28944195,4
4,4.4,92.64410028,-35.88429962,4
4,4.4,103.6978457,-30.47580494,4
4.25,4,91.44847933,-21.93175524,4
4.2,4.6,100.6542624,-27.09003288,4
4.25,4.25,125.5545574,-47.00470153,4
4,4.2,101.3674571,-35.77060407,4
4,4.25,112.2571143,-42.66339553,4
4.25,4.25,114.4611504,-35.74735339,4
4.4,4,127.0383418,-54.14926752,4
4,4,96.42553632,-40.45502577,4
4.25,4.25,98.23801089,-24.98060605,4
4,4,100.6184772,-36.86288722,4
4,4.4,105.5286105,-42.91791265,4
4,4.25,99.64905553,-23.42783524,4
4,4.2,108.2783651,-32.3861521,4
4.25,4,104.4742655,-40.41498947,4
4.4,4.2,114.9381835,-57.40948377,4
4,4.25,97.57359323,-30.42578222,4
4.2,4.2,88.10430292,-28.87780611,4
4,4.2,88.23577089,-20.11497951,4
4,4.25,108.9043642,-27.68744894,4
4,4.25,112.7410013,-21.77006171,4
4,4.2,104.6013082,-12.19571867,4
4,4.5,102.166436,-27.03877941,4
4.4,4,109.9923983,-34.59211654,4
4.25,4,112.8118155,-39.66286392,4
4.25,4,107.1047633,-36.9690819,4
4.2,4,110.6251871,-36.27374751,4
4,4.25,116.3192458,-46.35373072,4
4,4,89.34244149,-38.43595365,4
4,4,114.9690509,-45.12443949,4
4,4.4,112.6252436,-41.52738302,4
4,4.25,104.9100306,-29.33453109,4
4,4.4,94.57510949,-18.65865492,4
4,4,104.3608924,-32.99044328,4
4,4.25,110.5171456,-32.66267371,4
4,4,112.0614719,-31.763325,4
4,4.6,116.3459587,-38.74915548,4
4,4.25,123.7829503,-53.54637189,4
4.4,4,134.9635318,-76.93857274,4
4.2,4.2,94.73182908,-59.69613555,4
4.2,4.2,104.540001,-51.68915412,4
4.25,4,77.93967364,-30.04071372,4
4.25,4.25,86.24704331,-31.59949785,4
4,4.2,91.59437072,-49.98939575,4
4,4.2,105.6942723,-61.06694627,4
4,4.75,91.90819507,-46.89462538,4
4.4,4.2,101.8491942,-45.59997163,4
-53.8,4.2,101.6596999,-38.54914608,4
4,4.4,108.5914136,-21.26990133,4
4,4.2,105.6785657,-33.30074657,4
4.25,4.25,115.1599358,-9.875618447,4
4.4,4,133.991887,-34.8106586,4
-12.8,4.4,154.5345846,-48.73569579,4
4.333333333,4.2,112.5251312,-41.80186754,4
4,4.333333333,126.5443636,-40.31008771,4
4.2,4.4,120.2481743,-52.27921762,4
4.333333333,4,100.1617702,-26.01821797,4
4.25,4.166666667,134.0111851,-49.45798648,4
4,4,141.9985548,12.32203147,4
4.2,4.6,157.1468229,-32.43389962,4
4,4.2,145.6044342,-31.62086942,4
4,4.2,123.8268214,-22.58521959,4
4,4.4,119.2745506,-4.886095636,4
4,4.2,140.5878736,-30.38037835,4
4,4.2,117.9595095,-13.40741199,4
4,4.2,136.8578186,-39.10264418,4
4.2,4,103.8827053,-11.53249491,4
4,4.2,118.4158937,-10.59661884,4
4,4.2,124.2813706,-17.62076696,4
4,4.4,115.2421953,-17.83386939,4
3.8,4.2,109.5105164,-26.64855442,4
4.2,4.2,78.50464714,-12.82730641,4
4.25,4.2,113.6465991,-14.58957938,4
4.25,4.25,141.6260381,-6.575258709,4
4,4.25,117.0461889,-14.8163474,4
4,4,98.91101561,-19.18998348,4
4.2,4,78.67818045,-15.36758209,4
4,4,93.41244896,-22.1802899,4
4.4,4.2,113.3310281,-2.15428364,4
4.2,4.2,101.6406648,-36.1104309,4
4,4,89.48945951,-23.48161725,4
4,4.2,92.30738778,-17.19874743,4
4,4,102.9177085,-25.85360091,4
4,4.2,100.3631497,-43.33560471,4
4,4.2,119.773659,-48.30263197,4
4,4.2,81.19920767,-11.85821736,4
4,4.2,77.97283403,-21.88818625,4
4,4.5,155.3574889,-129.8524797,5
4.25,4.5,153.9953656,-130.9548056,5
4.25,4.25,151.1313685,-130.1280942,5
4.25,4.5,147.2151487,-129.2605028,5
4.75,4,162.3526885,-136.7257368,5
4.25,4.25,156.0581714,-133.9408936,5
4.333333333,4,155.562581,-132.7730914,5
-0.2,4.2,148.8072916,-119.8134719,5
4.25,4.5,146.3676398,-121.6053005,5
4.25,4.5,154.797644,-132.8308159,5
4.25,4.5,161.147579,-138.7971231,5
4.25,4.75,152.9212179,-128.2816902,5
4.5,4.5,153.82188,-128.8337153,5
4.75,4.25,143.155763,-122.7755736,5
4.25,4.75,159.4460192,-134.4604884,5
4.5,4.5,161.4036797,-132.5642753,5
4.25,4.5,159.0329798,-128.1244626,5
4.25,4.5,142.0005966,-126.2715929,5
4.5,4.25,160.5046898,-138.3054875,5
4.5,4.25,154.2151743,-131.5834833,5
4.5,4.5,151.041173,-132.4555936,5
4.5,4.25,154.6312528,-134.8825168,5
4.2,4.6,150.5458867,-132.2395056,5
4.75,4.25,149.9617923,-130.0064233,5
4,4.75,152.2588186,-131.3197885,5
4.25,4.25,152.9375147,-131.3951084,5
4.5,4.5,155.4123218,-130.3795391,5
4,4.5,152.510336,-131.7518415,5
4.5,4.5,156.9041505,-132.1422925,5
4.75,4.25,151.7903868,-127.5981298,5
4,4.25,153.610309,-131.1439261,5
4.25,4.75,160.3232355,-138.6122003,5
4.25,4.75,155.0537249,-130.2520698,5
4.5,4.25,158.5975325,-133.5435313,5
4.5,4.25,156.1234516,-133.2670542,5
4.25,4.5,147.8941154,-126.6359716,5
4.5,4.25,151.1894401,-128.5417901,5
4,4.5,156.1872718,-131.3714969,5
4.75,4,155.9268731,-131.261752,5
4.6,4.4,160.121654,-128.580375,5
4,4.25,156.9728302,-136.5019879,5
4.5,4.5,160.3871442,-133.5890506,5
4.2,4.6,161.9159927,-135.8103724,5
4.25,4.5,164.0295839,-146.498625,5
4.6,4.4,162.4330118,-143.0190816,5
4.75,4.25,157.7154277,-132.9609776,5
4.2,4.8,150.1201316,-120.7775046,5
4.25,4.75,150.1346801,-121.5337234,5
4.4,4.2,159.0186734,-136.8935298,5
4.2,4.4,158.0111855,-135.356722,5
4.2,4.6,152.486644,-130.2274464,5
4.8,4.2,149.3821718,-122.4107335,5
4.6,4.4,152.5199114,-119.7438302,5
4.2,4.2,157.6043259,-125.040182,5
4,4.8,146.6398353,-121.1450781,5
4.4,4.4,145.328595,-122.1466794,5
4.5,4.166666667,150.2033509,-123.4512255,5
4.6,4.2,138.8500331,-112.7782939,5
4,4.4,148.8549172,-121.0593546,5
5,4,145.5179785,-116.1927988,5
4.6,4.2,142.8221251,-115.8517444,5
4.6,4.6,161.4527797,-129.2921323,5
4.5,4.25,149.9264726,-113.0093474,5
4.2,4.4,145.3838653,-117.0794804,5
4.5,4,151.873638,-121.4251178,5
4.25,4.75,152.1304143,-124.3599433,5
4.5,4,157.7408873,-127.7739325,5
4.5,4.5,151.2647456,-120.978522,5
4.4,4.4,159.7006868,-126.9694464,5
4,4,153.4053584,-119.1743622,5
4,4,163.5491949,-126.5104963,5
4.333333333,4,153.8206776,-121.7249187,5
4.75,4,157.4250252,-118.7563873,5
4.5,4,168.9910506,-127.6659482,5
4.25,4.5,161.3679818,-125.489286,5
4.333333333,4.333333333,160.8057112,-123.5827422,5
4.5,4,163.9995827,-129.7047096,5
4.25,4.75,161.0473477,-128.6126137,5
4.5,4.5,158.4109849,-123.0011884,5
4.75,4.25,160.1133082,-128.2884203,5
4.75,4,170.5608569,-132.8621971,5
4.25,4.25,165.0648929,-131.8823011,5
4.4,4.6,156.7065872,-124.9453857,5
4.75,4.25,158.444724,-130.2735787,5
4.5,4.25,151.4175043,-124.2669521,5
4.5,4.25,162.577035,-134.3339583,5
4.6,4.4,148.0193578,-118.0783124,5
4.25,4.5,157.1355462,-130.0162974,5
4.25,4.25,158.4582493,-131.1570622,5
4.5,4.5,156.6194146,-132.1364426,5
4.25,4.25,147.8788113,-124.0352385,5
4.2,4.2,147.2602201,-126.1113295,5
4.75,4.25,161.5546694,-134.1404567,5
4.6,4,153.4923875,-121.3850069,5
4.75,4,152.5197396,-134.2334473,5
4.8,4,153.8942981,-123.9500402,5
4.333333333,4.333333333,157.2909965,-129.5413464,5
4,4.5,155.2656431,-124.8425199,5
4.5,4.5,162.6094425,-130.0398443,5
4.5,4.25,178.1167856,-141.6100887,5
4.25,4.25,162.0501252,-132.8526228,5
4.25,4.75,162.5728155,-135.5789666,5
4.333333333,4.666666667,152.8693479,-120.5176755,5
4.75,4.25,171.1745342,-132.1214164,5
4.4,4.6,158.3562628,-123.7742737,5
4.8,4,157.0054553,-128.6268159,5
4.4,4.4,148.3289883,-118.842332,5
4.5,4.25,158.7929859,-128.8641587,5
4.4,4.2,158.5763186,-124.9857981,5
4.4,4.2,156.4640946,-123.5456129,5
4.2,4,147.1077228,-117.7630737,5
4.4,4.4,152.9444853,-120.5640521,5
4.6,4.4,160.0184891,-127.911177,5
4,4.75,147.7585153,-121.3512735,5
4.2,4.6,149.7155362,-116.452785,5
4.6,4.4,152.6358634,-119.9568207,5
4.2,4.4,165.4155553,-126.070371,5
4.6,4,148.6876934,-124.2667954,5
4.2,4.6,143.1620999,-112.7822751,5
4.6,4.4,151.7335335,-122.0933422,5
4.4,4.2,145.182712,-114.7992001,5
4.8,4,149.3738445,-116.6490922,5
4.25,4.5,151.1271338,-119.5189636,5
4.4,4.4,155.4154878,-117.2830583,5
4,4.5,165.0352542,-134.259899,5
4.6,4.2,152.8146777,-122.086449,5
4.5,4.25,148.5648726,-115.997353,5
4.25,4.75,159.6039531,-124.9873,5
4.2,4.4,162.4771952,-129.0047407,5
4.5,4.25,156.4023431,-130.1710119,5
0.6,4.2,163.8085502,-128.7942817,5
4.6,4,158.8760814,-124.9824885,5
4.75,4.25,163.6825053,-124.46709,5
4.25,4.75,158.2829103,-119.8105405,5
4.25,4.25,166.7515725,-128.6524485,5
4.25,4,159.8311459,-123.3642625,5
4.25,4.5,160.9666616,-128.7957474,5
4.5,4.25,153.0880358,-118.0539874,5
4.25,4.25,171.2557067,-134.7425768,5
4.5,4.25,170.7732622,-139.1623706,5
4.25,4.75,161.1007818,-129.0293604,5
4,4.25,164.9140807,-131.3535214,5
4.75,4.25,166.323531,-127.6489064,5
4.25,4.5,164.4119201,-132.9025841,5
4.333333333,4.333333333,162.703213,-126.5383166,5
4.25,4.75,160.8968007,-123.6211028,5
4.5,4.5,153.6779107,-116.3939553,5
4.666666667,4.333333333,169.1580308,-133.2897916,5
4.5,4.5,157.890631,-120.8593123,5
4.666666667,4.333333333,160.235913,-122.0404861,5
4.25,4.75,158.4370684,-124.8607569,5
5,4,167.2242716,-126.0793303,5
4.333333333,4.333333333,162.5433473,-127.7727485,5
4.5,4.25,168.0955974,-131.7231445,5
4.25,4.5,167.6520562,-134.9271207,5
4.666666667,4,162.9304619,-127.8076999,5
4.333333333,4.333333333,164.8617295,-130.5508334,5
4,4.75,168.5979898,-130.8066759,5
4.25,4.5,163.2799987,-128.5277215,5
4,4.25,168.5646171,-133.8257337,5
4.75,4.25,163.9821115,-128.9140918,5
4,4.5,165.0216551,-136.1291613,5
4.5,4.5,167.1109384,-134.2738483,5
4.25,4.25,164.6096312,-134.5070045,5
4.25,4.5,165.1952573,-130.4495032,5
4.666666667,4,164.3231275,-128.558871,5
4.25,4.5,170.9778149,-140.6164533,5
4.5,4.25,166.0744155,-132.7494067,5
4.5,4.25,172.3482178,-133.7042869,5
-82.5,-4.75,134.4821104,-97.69407357,5
4.25,4.75,168.5250183,-133.9781252,5
4.25,4.5,173.4735859,-142.7551068,5
4,4.75,161.4362937,-130.4753534,5
4.75,4,162.840434,-126.8020231,5
4.5,4.25,167.1437789,-130.521767,5
4.5,4.5,176.0516951,-132.1959956,5
4,4.75,174.3148627,-137.8373142,5
4.75,4,155.652155,-125.4573912,5
4.5,4.25,161.4466894,-126.6712534,5
4.25,4.5,159.6971743,-127.4448533,5
4.25,4.25,160.8994217,-127.3388637,5
4,4.5,163.151066,-132.3591641,5
4.75,4,162.9503568,-130.0142588,5
4.75,4,175.9873286,-140.7566492,5
4.75,4.25,167.6876279,-134.4633428,5
4.75,4.75,161.3021623,-128.2808966,5
4.5,4.5,161.5983521,-127.8660315,5
4.75,4,168.9308176,-131.3329667,5
4.25,4.5,164.1602192,-133.2205906,5
4,5,162.391705,-131.6660955,5
4.2,4.4,144.1063625,-129.0978103,5
4.25,4.25,147.2574292,-122.3450759,5
4.25,4.25,151.9193471,-123.0026993,5
2.75,1.75,143.5938627,-122.5363031,5
4.2,4.4,157.894634,-124.857272,5
4.8,4.2,148.5196032,-116.4735932,5
4.25,4.5,153.8623545,-127.98019,5
4,4.75,156.0228322,-116.681219,5
4,4.6,150.1787101,-119.2041337,5
4.333333333,4,154.6805918,-124.9153556,5
4.25,4.75,169.4636342,-135.6520808,5
4.2,4,151.6370286,-124.8179047,5
4,4.6,151.3507857,-122.9090902,5
4.25,4.75,153.9692146,-123.6379738,5
4.6,4.2,143.0684945,-109.1275106,5
4.4,4.6,145.5464276,-115.0480352,5
2.8,2.6,145.3366756,-115.8969946,5
4.6,4.4,155.7620758,-119.2054296,5
4.8,4.2,143.5794141,-113.423201,5
4,4.2,135.4602057,-107.9962284,5
4.2,4.4,141.737696,-113.1497739,5
4.4,4.4,148.6684322,-120.3364995,5
4.4,4.4,139.4903971,-116.7250928,5
4.6,4.2,138.2076449,-109.6677327,5
4.4,4.2,150.0844736,-111.7342117,5
4.4,4.4,148.1355451,-122.1784317,5
4,4.5,148.5654775,-116.9250126,5
4,4.5,154.7624514,-116.0370607,5
4.2,4.4,153.78642,-124.6829583,5
-68.8,4.4,149.8833272,-120.7687575,5
4.25,4.75,150.7549606,-119.004209,5
4.5,4.5,146.8815333,-108.1429083,5
4.5,4.25,151.6130633,-119.3818602,5
4.2,4,158.6588786,-123.7319092,5
4,4.5,162.6179907,-123.6833958,5
4.2,4.6,156.9089663,-121.6677402,5
4,4.4,155.4921675,-122.22099,5
4,5,153.8718282,-124.8699552,5
4.4,4,152.1482313,-117.9384175,5
4,4.75,149.3199316,-119.0112361,5
4,5,153.5339888,-125.2715549,5
4,4.5,154.4482931,-122.2618636,5
4.25,4.25,154.7273812,-125.4423662,5
4.25,4.5,153.0801644,-124.171962,5
4.25,4,146.2623155,-118.1010222,5
4.5,4,150.6259397,-122.9042416,5
4.25,4.75,153.5740755,-117.3451888,5
4.4,4.2,150.9839602,-116.958594,5
4.5,4.25,147.1044833,-108.7605867,5
4.25,4.5,147.5909328,-116.0753034,5
4.25,4,153.0445737,-117.5055583,5
4.25,4.75,148.9104362,-116.2864781,5
4.5,4,157.5263832,-126.2279662,5
4.25,4.25,155.2754193,-117.4834647,5
4.25,4.25,154.0894999,-119.7195351,5
4.5,4.25,150.202955,-118.0742371,5
4,4.75,153.7470175,-116.9336894,5
4.5,4.25,139.3072202,-113.0555561,5
4,4.6,142.8954593,-114.5628781,5
4.5,4.25,142.7606106,-117.9062903,5
4.6,4,151.5236209,-117.5648828,5
4,4.75,150.2310582,-118.2646157,5
4.6,4.2,147.5152197,-122.853142,5
4.25,4.5,145.1500095,-116.4649226,5
4.2,4.6,150.5784988,-117.9673884,5
4.5,4.25,153.9944037,-120.7258244,5
4.75,4.25,150.7196207,-119.0288509,5
4.25,4.5,155.3792835,-126.1120403,5
4.75,4.25,143.7699244,-115.7613651,5
4.75,4.25,145.2763104,-108.021233,5
4.2,4,162.5749186,-128.9021088,5
4.25,4.25,165.4068099,-135.2076543,5
4.75,4,169.1553228,-132.7471849,5
4.4,4.4,161.1079466,-127.7055613,5
4.5,4.25,172.0817096,-137.7720481,5
4.2,4.6,174.0919465,-138.223142,5
4,4.2,173.3555902,-137.2937047,5
4.4,4.6,161.8199591,-127.6783273,5
4.25,4,167.3815499,-127.1818555,5
4.8,4.2,165.2141504,-128.9104425,5
4.6,4.2,165.9741091,-128.9055046,5
4,4.8,172.5983019,-134.0094978,5
4.25,4.5,164.769412,-121.7926174,5
4.4,4.2,176.8011056,-137.6802486,5
4.4,4.4,170.0462509,-134.7263582,5
4.2,4.6,173.564374,-134.9818116,5
4.4,4.4,153.7940681,-123.7856346,5
4.4,4.2,167.5462788,-139.3848691,5
4.2,4.4,148.084872,-128.0586456,5
4,4.4,138.6172703,-114.422237,5
4.25,4.75,160.7627563,-120.5057648,5
4.25,4.25,152.9293969,-122.4895132,5
4.2,4,149.4092108,-117.686791,5
4,4.75,159.2530206,-131.7289398,5
4,4.25,152.7329699,-122.4691202,5
4.25,4.75,159.1234962,-131.0046514,5
4.8,4,147.9953591,-119.7496806,5
4.25,4.75,157.758298,-132.1209092,5
4.5,4.5,148.1994557,-127.5920159,5
4.2,4.4,156.0466496,-130.5846136,5
4.25,4.25,158.5698786,-126.3805324,5
4,4.8,144.8519635,-120.1272006,5
4.5,4,153.7214208,-134.1979031,5
4,4.5,152.909909,-126.735279,5
4,4.6,167.5540127,-133.1018219,5
4.75,4,153.2250452,-125.1854633,5
4.2,4.4,153.2373227,-127.0934523,5
4,4.75,156.1881625,-134.3551115,5
4,4.2,169.6662352,-134.8117754,5
4.6,4,181.2671651,-141.7062944,5
4.2,4.6,166.2014107,-133.3793086,5
4.4,4.6,166.7286642,-129.191851,5
4.6,4.4,155.1849692,-123.4332606,5
4.25,4.5,158.8178945,-122.4407905,5
4.2,4.4,158.1058113,-127.1640331,5
4,4.4,164.1381609,-137.7213909,5
4.2,4.4,169.5435845,-130.9090199,5
4,4.6,172.4072638,-134.9535041,5
4.4,4.6,140.8936772,-122.2646819,5
4.4,4.4,158.4213606,-123.3876837,5
4.2,4.2,155.0002925,-124.4700572,5
4.6,4.2,146.7117654,-115.9930575,5
4.4,4.2,167.100585,-129.0189365,5
4,4.333333333,178.168587,-138.1889771,5
4.4,4.4,181.029351,-133.5482033,5
4.4,4.4,174.9354558,-133.9858554,5
4.2,4.2,187.4972366,-145.5730295,5
4.2,4.2,190.0808697,-142.2825663,5
4,4.2,199.948873,-148.3603185,5
4.4,4,189.9043023,-147.6300005,5
4.4,4.4,186.0598145,-135.7283467,5
4.6,4,184.9809261,-139.3897697,5
4.6,4.2,183.5418755,-131.3962744,5
4.2,4.6,189.2803314,-137.6183924,5
4,4.2,195.0716059,-147.4260187,5
4.2,4.6,184.4413981,-139.7946214,5
4.5,5,314.0305743,-228.3363318,6
4.5,5,312.8686928,-227.3525647,6
5,4.75,308.2491319,-239.0538731,6
4.75,4.5,287.2162899,-208.9129556,6
4.5,5,326.1701276,-251.2585546,6
4.75,5,317.1432346,-255.7582568,6
4.666666667,4.666666667,301.3980079,-229.0846468,6
4.5,4.75,325.843102,-246.9030178,6
4.75,4.5,318.3855606,-250.0471414,6
4.5,4.75,311.7240949,-225.5133245,6
4.75,4.75,323.8190922,-253.2301627,6
4.5,4.75,320.7925098,-258.594717,6
4.5,5,314.1306629,-249.7942241,6
4.5,4.5,299.0199957,-230.7159659,6
5,4.5,321.9069445,-251.682057,6
4.75,4.5,328.1394234,-259.4676926,6
4.75,4.25,311.7369992,-246.4305726,6
5,4.5,301.9213022,-244.2978153,6
4.6,4.6,296.43143,-237.4449543,6
4.75,4.5,306.1678784,-235.7006284,6
4.8,4.4,309.1187971,-243.9862148,6
4.75,5,293.1227221,-216.1132244,6
4.5,5,300.2549681,-221.5023738,6
5,5,295.164989,-215.3959148,6
4.75,5,316.1611036,-238.8813894,6
5,4.5,307.6370278,-233.1918637,6
5,5,300.4392823,-229.042125,6
4.25,5,304.2345782,-226.0392519,6
4.75,4.75,308.2147453,-232.1961126,6
4.75,5,314.0505409,-244.4644594,6
4.5,4.75,327.1790345,-244.0828544,6
4.5,5,321.1779987,-251.4680098,6
4.75,4.75,331.5517964,-253.1264384,6
5,4.4,321.9725798,-250.9835308,6
4.5,4.75,313.6129806,-230.5421435,6
5,4.8,335.4972168,-247.5023962,6
4.4,4.8,325.6290479,-244.1165986,6
4.6,4.8,321.1443787,-236.8312652,6
4.75,4.75,320.4283267,-234.4564855,6
4.75,5,319.1710203,-231.5269755,6
4.6,4.6,306.9890927,-233.3515705,6
4.8,4.2,301.4929106,-226.640486,6
4.5,4.75,303.0569666,-230.1067069,6
5,4.5,304.626334,-228.0228545,6
5,4.75,301.9296345,-233.1391675,6
4.333333333,4.666666667,312.6120617,-234.1145939,6
4.75,4.75,304.4348333,-224.7354961,6
4.666666667,4.666666667,299.2189266,-230.5035341,6
4.75,5,311.4331305,-236.1801811,6
5,4.5,296.9444353,-206.4706613,6
5,4.666666667,310.5679316,-220.9639825,6
4.8,4.6,314.3313598,-229.719738,6
5,4.75,309.4506043,-222.7666489,6
4.666666667,4.333333333,302.49584,-222.6203437,6
4.5,4.5,296.6078258,-213.6532736,6
4.5,4.5,310.2370032,-219.3447464,6
4.25,4.75,293.4558451,-210.036733,6
4.666666667,4.666666667,283.6911229,-209.9266791,6
5,4.75,309.955424,-222.9419109,6
5,4.5,315.3669002,-228.1309776,6
4.5,4.5,298.2951737,-217.8120204,6
4.75,5,324.5918495,-225.9487709,6
5,4.5,330.2275275,-239.0625225,6
5,4.75,335.7751171,-246.688765,6
4.8,4.8,307.7605072,-225.0365088,6
4.75,4.75,332.9925096,-245.520122,6
4.8,5,315.6196764,-227.8544351,6
5,4.8,328.9622145,-238.3216795,6
5,4.6,309.9778822,-233.4106913,6
4.8,4.8,341.0153574,-246.9565705,6
5,5,343.025174,-253.1699888,6
5,4.6,310.2224922,-237.1013872,6
4.8,4.8,328.8780331,-239.3845807,6
5,4.8,310.7944932,-225.1680181,6
4.8,4.4,319.6635131,-237.1909828,6
4.6,4.6,318.4230375,-236.801233,6
4.8,5,338.8124863,-248.3871051,6
4.6,4.8,323.2901654,-233.5613344,6
4.8,4.8,321.6263407,-234.894007,6
4.8,4.6,312.1321987,-233.2614435,6
4.6,4.4,307.1422155,-204.2775011,6
4.6,4.6,315.8632108,-244.2247383,6
5,4.8,321.3923739,-242.9718886,6
4.8,4.8,311.277575,-232.8500681,6
5,4.6,322.284413,-235.0731533,6
4.25,4.75,310.6944879,-218.2618917,6
4.75,4.75,306.1250544,-223.8330153,6
4.75,4.75,290.7279425,-214.1802167,6
4.4,5,303.9324809,-225.846063,6
4.5,4.75,291.4289889,-207.2898591,6
4.5,4.5,301.5527017,-217.0686289,6
4.75,5,296.095121,-209.1406398,6
4.75,4.75,285.2015385,-208.3764478,6
4.5,4.5,287.1321055,-216.2241133,6
4.666666667,4.333333333,298.5528106,-215.114881,6
4.75,4.5,312.0149708,-229.4172444,6
5,4.5,303.2548957,-225.5887269,6
5,4.75,312.7820823,-230.4882562,6
4.5,4.5,304.5526793,-218.2669743,6
5,4.666666667,300.9914213,-222.6769762,6
5,4.666666667,311.2670131,-229.9086352,6
5,4.5,313.6999768,-232.84413,6
4.666666667,4.666666667,314.8836892,-223.7494618,6
4.5,4.75,308.5969894,-215.370656,6
5,4.666666667,310.0355235,-230.0577124,6
4.75,4.75,304.6722182,-222.8058869,6
4.75,4.75,317.1533616,-228.8630991,6
4.75,4.5,306.0383483,-226.238305,6
5,5,319.7779061,-238.5641029,6
4.5,4.75,302.4506253,-221.0706908,6
5,4.333333333,297.3851543,-225.1615362,6
4.5,4.75,304.0123132,-220.0989521,6
5,4.75,322.705533,-238.4931569,6
4.333333333,5,296.206696,-209.5385963,6
4,5,309.5770483,-224.3174087,6
4.75,4.75,316.493752,-223.1897788,6
5,4,307.6688961,-228.7252631,6
4.75,4.75,317.7173887,-243.3527305,6
5,4.666666667,321.7382969,-234.0742349,6
4.25,5,319.2113258,-226.2864052,6
4.5,5,323.294729,-234.5949486,6
5,5,326.6062846,-248.5494277,6
4.75,4.25,305.747238,-228.4954821,6
5,5,323.7494048,-239.7763409,6
4.666666667,4.666666667,324.0742252,-237.0109508,6
4.75,5,321.914767,-237.9031012,6
5,4.333333333,325.2021039,-245.6780472,6
4.75,4.75,323.0764725,-238.2983075,6
5,4,307.207295,-239.9011022,6
5,4.75,313.1802682,-239.7817201,6
4.666666667,5,325.2120376,-235.8583317,6
4.75,5,335.8264249,-245.5766005,6
5,4.333333333,313.2042291,-238.6032877,6
4.333333333,5,312.5950725,-235.265399,6
4.75,5,335.9555771,-256.513137,6
4.333333333,5,318.0927662,-237.7937293,6
4.75,4.5,315.9237021,-236.6457501,6
4.666666667,4.333333333,302.989451,-236.6187267,6
5,4.666666667,332.4878379,-252.4346786,6
4.333333333,5,313.2692451,-242.8001796,6
4.333333333,5,332.2470893,-250.244276,6
4.75,4.75,330.7210376,-247.1475985,6
4.25,5,304.2944376,-230.6188499,6
4.5,5,332.2481595,-253.252849,6
4.5,5,328.5724395,-253.742738,6
5,4.75,323.1107143,-256.9122428,6
4.666666667,5,319.6725746,-248.0304723,6
4.666666667,5,317.9021291,-243.916896,6
4.333333333,5,322.1324565,-246.1769399,6
4.666666667,5,332.8973999,-252.7799023,6
5,4.333333333,313.6594807,-238.0309578,6
4.666666667,5,330.3420131,-254.8444507,6
5,4.333333333,311.8868565,-239.5528697,6
5,4.5,320.2269423,-252.8842277,6
4.333333333,5,337.842642,-251.617058,6
4.75,4.75,325.8828535,-254.1371933,6
4.666666667,4.666666667,335.7487436,-251.7083326,6
4.75,4.75,336.8254651,-259.4323527,6
4.666666667,4.666666667,318.2205294,-249.9285903,6
4.666666667,4.333333333,318.883329,-241.2597805,6
5,4.75,312.5875026,-238.6142325,6
4.666666667,5,308.364107,-246.1767249,6
4.666666667,5,323.4481696,-246.9850696,6
4.5,5,317.6960823,-246.2450764,6
5,5,325.6395296,-243.4551609,6
4.333333333,5,318.1448634,-236.1508866,6
5,4.333333333,308.5073551,-238.8732051,6
4.666666667,5,345.3039827,-260.1046432,6
5,4.5,325.7310698,-256.3474844,6
5,4.666666667,312.6219934,-248.0152262,6
4.666666667,5,329.9389789,-257.1228409,6
4.666666667,5,340.5618926,-257.2735261,6
4.666666667,4.666666667,319.2280681,-254.0317746,6
4.75,4.5,303.940956,-233.55778,6
4.666666667,4.666666667,319.8643653,-241.9725718,6
5,4.5,320.1284625,-247.6548217,6
4.333333333,5,337.3368562,-251.8437318,6
4.75,4.5,306.353681,-241.337058,6
4.666666667,4.333333333,304.9265705,-237.1983977,6
5,4,312.2412407,-242.8508142,6
5,5,339.150209,-258.0437716,6
4.333333333,5,313.400919,-239.7736762,6
5,5,325.2441035,-248.4546902,6
4.333333333,5,327.0527934,-246.911522,6
4.75,4.75,315.5407043,-241.7006435,6
5,4,311.2670433,-237.8230357,6
5,4.5,321.8310473,-255.1568547,6
5,4.75,322.7134763,-249.2944958,6
4.333333333,5,325.8685673,-245.2776029,6
5,4.333333333,312.0642494,-246.0400149,6
4.333333333,5,314.8049741,-245.3171157,6
4.5,4.75,315.4406143,-241.2367666,6
5,4.666666667,315.3509312,-245.7857942,6
5,5,316.8845249,-245.4029426,6
4,5,306.3832424,-235.9669941,6
4.666666667,5,329.0610023,-251.7072354,6
4.666666667,5,323.2664475,-254.0252209,6
4.333333333,5,320.4809742,-243.064928,6
4.75,4.75,320.0699334,-240.7229613,6
4.666666667,5,311.905483,-238.8791603,6
4.75,5,311.9431957,-239.1612899,6
4.75,4.5,314.2796709,-243.4764757,6
4.333333333,5,306.9798334,-231.6621087,6
4.5,5,312.374872,-239.2736782,6
4.333333333,4.666666667,300.0465149,-238.0269388,6
4.666666667,4.666666667,321.6246126,-243.5973365,6
4.75,4.75,307.6565716,-239.2638339,6
5,5,328.0106956,-260.8279572,6
4.333333333,4.666666667,318.3477732,-247.109497,6
4.666666667,4.666666667,312.9528616,-250.9249744,6
4.666666667,4.666666667,323.2623306,-250.0713825,6
4.5,4.5,309.8306166,-236.6910462,6
5,4.333333333,308.3281437,-239.446134,6
5,5,315.4715874,-241.0756854,6
4.666666667,4.333333333,312.6264013,-244.867709,6
4.666666667,4.666666667,314.4094319,-240.8140681,6
5,4.666666667,305.5063527,-232.4078111,6
4.666666667,4.333333333,293.2309159,-232.7722998,6
5,4.75,319.9039229,-248.8197104,6
4.666666667,5,303.8465798,-242.5649927,6
4.75,4.25,312.5293181,-246.3400884,6
5,4,295.553736,-234.4753316,6
4.25,4.75,309.1084133,-234.2879,6
5,4.666666667,313.4708267,-237.9940183,6
4.666666667,5,322.3049523,-240.1587481,6
5,5,326.1882868,-261.1064598,6
4.75,5,307.9759685,-236.3428479,6
4.75,4.5,316.1026871,-240.3433042,6
4.75,5,318.7209093,-242.5120571,6
5,4.666666667,313.4827927,-253.9223627,6
4.25,5,318.8468101,-247.0361915,6
4.666666667,4.666666667,318.0430773,-247.2850479,6
5,5,321.9945439,-250.3270335,6
4.666666667,5,317.5780869,-238.138453,6
4.75,5,317.9330617,-251.8707894,6
4.666666667,4.666666667,309.7761282,-243.2079173,6
5,5,322.0352985,-247.3343216,6
4.75,4.5,318.1134305,-248.8802984,6
4.666666667,4.666666667,317.3351323,-244.379191,6
4.25,4.75,304.6081485,-240.8371858,6
4.666666667,4.666666667,315.61538,-245.5724067,6
5,4,301.1549631,-240.9467785,6
4.75,5,319.0146761,-244.8058395,6
5,4.666666667,312.8016823,-251.7511877,6
5,4.666666667,318.1535173,-250.2116904,6
4.75,4.75,311.1160727,-245.6914367,6
4,5,303.0350065,-233.8399512,6
4.666666667,4.666666667,315.0183619,-245.0995352,6
4.666666667,4.666666667,301.1361781,-236.7126271,6
4.666666667,5,313.9756852,-243.1945875,6
4.666666667,5,317.9821728,-244.5843222,6
4.75,5,323.873421,-250.5228133,6
4.666666667,4.666666667,299.9220888,-243.225832,6
5,4.333333333,310.2004721,-246.6051929,6
4.75,4.75,312.6793494,-241.8766424,6
4.333333333,5,303.726704,-225.7446378,6
4.666666667,4.666666667,301.0320292,-244.4446475,6
5,4.333333333,297.2132439,-230.2986543,6
4.75,4.75,314.1326732,-242.1380332,6
4.333333333,5,305.984762,-235.336823,6
5,4.666666667,311.8002935,-245.1939416,6
5,4.5,312.2096387,-238.3486781,6
4.5,4.5,305.6855738,-241.3744846,6
4.75,4.75,310.7585109,-236.4878924,6
5,4.25,294.2900234,-227.4614545,6
4.666666667,5,312.1207316,-244.0268442,6
5,4.5,305.2637533,-237.9535084,6
5,5,314.8365432,-254.1363694,6
4.666666667,4.666666667,320.6780556,-248.3642064,6
5,5,319.3096523,-254.9311621,6
5,4.666666667,321.3737011,-251.2720357,6
4.75,4.75,313.5528792,-245.8846955,6
4.666666667,4.333333333,307.5689309,-243.4255076,6
4.666666667,5,325.8761683,-253.2490678,6
4.333333333,4.666666667,311.3304349,-242.2973605,6
5,4.333333333,313.6277395,-242.1119348,6
4.666666667,4.666666667,303.8069926,-232.0524183,6
5,4.25,311.5941037,-248.7744169,6
4.333333333,5,314.5043407,-241.4984133,6
4.75,5,303.8409048,-237.6575258,6
4.666666667,5,315.2070005,-248.7204468,6
4.666666667,5,321.3809651,-247.1622052,6
4.333333333,5,320.5832402,-255.8346991,6
4.75,4.5,314.7559713,-259.9623472,6
4.75,4.75,310.4538034,-245.3689036,6
4.75,4.5,301.9116214,-240.5017605,6
4.333333333,5,299.4395475,-222.8724634,6
4.75,5,316.6668001,-249.5339029,6
4.666666667,5,323.7370629,-258.1498547,6
4.666666667,4.666666667,311.3649858,-242.5626951,6
4.666666667,4.666666667,318.494705,-242.8923612,6
5,4.5,306.9990894,-247.8084308,6
5,4.75,305.5437241,-233.1402793,6
4.666666667,4.666666667,314.803391,-246.1843021,6
4.666666667,4.666666667,303.7765598,-231.7781593,6
5,4.666666667,307.1172183,-247.532604,6
4.25,4.75,308.2263013,-234.9856821,6
5,4.666666667,314.1562759,-248.7424944,6
4.75,5,318.2512617,-257.0058887,6
4.666666667,5,320.9739796,-245.3577114,6
4.75,5,317.1012225,-249.8114108,6
4.333333333,5,304.3620718,-233.0588331,6
4.25,4.75,305.2007207,-236.0853315,6
5,4.666666667,318.8367373,-248.9288663,6
4.333333333,5,318.2929694,-240.0401705,6
4.666666667,4.333333333,316.1429974,-255.4127105,6
5,4.666666667,319.0395074,-246.146335,6
4.666666667,5,319.660389,-243.3539614,6
4.666666667,4.666666667,316.3933835,-249.2873958,6
4.333333333,5,313.4454039,-243.1019411,6
5,4.5,308.3976328,-247.2736292,6
4.333333333,4.666666667,304.2459427,-237.529527,6
4.666666667,5,312.9030049,-240.4399212,6
5,5,290.2493066,-323.5489029,7
4.5,5,298.0690673,-324.7013923,7
5,5,290.5120372,-325.2612225,7
4.75,5,294.6423294,-321.4542368,7
5,5,301.2597486,-334.5817262,7
4.75,5,301.4996819,-334.8472402,7
5,4.666666667,295.4696431,-326.0841789,7
4.75,5,293.4352173,-325.6404997,7
4.5,5,275.3084358,-304.075711,7
5,5,302.0964243,-328.9239334,7
5,5,281.5421826,-311.1943427,7
4.75,5,287.2977888,-317.5923993,7
4.75,5.25,296.4719263,-323.024075,7
5,5,293.2932372,-321.8198395,7
4.75,5,293.8594811,-322.8241713,7
4.25,5,292.6297943,-321.7450655,7
4.75,5,293.0530196,-321.5926299,7
4.75,4.75,298.6439851,-329.2990422,7
4.25,5,288.9468216,-316.7187514,7
5,5,282.4081857,-318.7291671,7
4.25,5,277.6511199,-311.6747181,7
5,5,299.1241541,-326.3070458,7
5,5,293.3,-320.3473663,7
5,5,279.9462041,-306.367589,7
4.5,5.25,308.3134848,-334.6773567,7
5,5,291.7864568,-321.6486113,7
5,5,303.1261693,-328.3505525,7
4.75,5,301.4753383,-327.0069267,7
4.75,5,289.1540186,-312.6582957,7
4.25,5,297.5441976,-323.0138802,7
4.5,5,294.5550285,-324.7647735,7
4.5,5,304.7061504,-329.3469951,7
4.5,5.25,305.0449636,-335.4228632,7
4.8,5,295.4999964,-323.7346659,7
4.75,5,294.3777539,-326.036747,7
4.75,5,299.2112452,-328.2661249,7
4.75,5,294.4162666,-322.0987189,7
5,5,306.5723979,-338.6154802,7
4.25,5,286.608666,-322.0113249,7
4.25,5.25,305.584429,-331.3161562,7
4.5,5,311.4696211,-340.2797891,7
4.75,5,311.5553214,-341.4445219,7
5,5,304.1964718,-335.5093184,7
5,5,311.3250322,-342.2632745,7
4.5,5.25,288.5237802,-320.8128984,7
4.25,5,284.7946297,-323.2018408,7
4.75,5,297.3652651,-324.4792863,7
4.25,5.25,295.1064127,-327.5014243,7
5,5,305.0434241,-336.0112089,7
4.5,5,297.5306206,-322.6714991,7
4.75,4.75,298.7877334,-333.8459572,7
4.75,5,306.858021,-338.8402355,7
4.75,5,285.8236193,-313.0312553,7
5,5,301.4962402,-330.7489007,7
5,5,285.7702326,-319.0023422,7
4.666666667,5,289.205254,-319.0678006,7
4.5,5,294.1094377,-321.7460768,7
4.25,5,308.4068088,-334.4627739,7
5,5,313.5312117,-340.5655021,7
4.5,5,307.3360848,-337.363666,7
4.5,5,300.1969598,-325.6942512,7
4.666666667,5,301.5308751,-332.9742167,7
4.75,5,297.229842,-332.1789831,7
5,5,296.4924395,-324.6309785,7
4.5,5,293.2655217,-324.6476858,7
4.75,5,296.6286484,-331.4373681,7
5,4.666666667,271.9958094,-307.5864351,7
4.5,5,296.9312471,-325.1768866,7
4,5,307.3425823,-332.679032,7
4.75,5,293.1644613,-322.0910913,7
4.5,5,304.0713772,-330.5821797,7
4.25,5,293.7273247,-319.0780557,7
4.75,5,295.404292,-316.3699037,7
5,5,291.2967571,-314.9520423,7
4.75,5,288.0934861,-312.420627,7
5,5,293.8195918,-323.4580778,7
4.5,5,297.2406976,-324.9903154,7
4.25,5,300.157989,-326.8370666,7
4.5,5,297.8431749,-326.1382526,7
4.75,4.75,293.0746563,-321.3877232,7
4.25,5,283.4129693,-311.395945,7
4.75,5,281.9638338,-311.9862115,7
-86,-1.5,213.5932525,-250.2855416,7
5,5,307.4842509,-336.2498318,7
5,5,296.911487,-333.1064279,7
4.5,5,297.538259,-330.8228924,7
5,5,300.0167915,-331.4508017,7
4.333333333,5,298.587654,-327.8979325,7
5,5,290.22608,-318.4913086,7
4.75,5,297.2610867,-325.7414888,7
4.666666667,5,291.6032453,-322.006936,7
4.75,5,302.7381539,-333.3321023,7
5,5,309.9002186,-338.7690098,7
4.75,5,299.0552118,-325.1360237,7
4.75,5,285.7444527,-311.0813372,7
10.25,-1,214.3112553,-242.435698,7
4.75,5,296.8426366,-321.1394158,7
4.75,5,297.7745727,-329.4315015,7
4.5,4.75,289.4071178,-316.9381524,7
4.5,4.75,298.063207,-327.330297,7
5,5,311.3077042,-346.2558128,7
5,4.75,304.9838562,-332.2998122,7
4.5,4.75,288.2398025,-322.492637,7
4.75,5,294.8526389,-327.3432275,7
4.75,5,299.3882726,-327.5722106,7
4.5,5,305.0138839,-331.053885,7
4.25,5,293.0818337,-313.4722231,7
4.75,5,294.4887249,-321.5944169,7
4.4,5.2,290.0190972,-318.4256913,7
5,4.75,288.6945795,-317.813266,7
4.75,5,298.1261839,-325.658867,7
4.5,5,295.1078029,-320.3924627,7
5,5,294.7271651,-323.5341037,7
5,4.75,281.5373154,-315.4868884,7
4.5,5,289.1262432,-321.9141567,7
4.75,5,293.5058559,-323.6428788,7
4.333333333,5,292.8812478,-320.6184653,7
4.5,5,297.549506,-327.9073137,7
4.5,5,287.0641827,-312.1572056,7
5,5,303.1732866,-331.2679954,7
4.75,5,291.6369683,-318.1024814,7
5,5,299.593496,-326.7504461,7
5,5,304.2938972,-330.8688062,7
5,5,305.638575,-335.5581504,7
5,5,304.0942486,-323.7831727,7
4.666666667,5,299.6588488,-322.1825504,7
4.666666667,5,301.0839728,-325.7164009,7
5,5,288.0766658,-315.9588815,7
5,4.75,275.5671375,-310.4632721,7
4.5,5,298.6901694,-326.7394626,7
4.75,5,302.4999736,-333.015724,7
5,4.75,290.8825701,-323.4747662,7
4.5,5,309.3003557,-334.3233949,7
4.75,4.75,299.6004085,-326.3464827,7
4.666666667,4.666666667,287.5934601,-322.5862891,7
4.5,5,304.5058144,-332.5992037,7
4.75,5,307.2208239,-331.8148854,7
4.5,5,303.4309319,-329.0153654,7
4.666666667,5.333333333,298.0261077,-331.3883459,7
5,5,301.8580729,-331.7430952,7
5,5,297.0735058,-323.2760662,7
4.75,5,276.1962177,-307.0051384,7
4.75,5,278.9841336,-309.1694386,7
4.75,5,306.1262817,-326.8933152,7
4.75,5,316.5712588,-347.5317622,7
5,5,314.6427808,-338.1617205,7
4.5,5,314.8537456,-342.0828812,7
4.5,5,313.0650538,-338.3693046,7
5,5,305.2257113,-331.6410058,7
5,5,307.9431226,-335.7471006,7
5,5,304.541547,-332.5636226,7
4.666666667,5,302.6731271,-337.4548809,7
4.5,5,299.8086892,-330.5378019,7
4.75,4.75,301.7079377,-329.9814273,7
5,5,306.9420943,-332.9776781,7
5,5,316.5021736,-344.5358843,7
4.75,5,304.1629054,-334.2535084,7
4.75,5,306.8509412,-333.9308119,7
4.333333333,5,298.1801,-331.2533027,7
4.75,5,298.707081,-333.477473,7
4.666666667,5,310.7123064,-338.6063957,7
4.666666667,5,314.6785833,-343.8659311,7
5,5,318.4558406,-341.6871014,7
4.666666667,5,304.2714443,-331.1424904,7
4.75,5,307.9226011,-332.0259414,7
4.75,5,297.279341,-331.6986441,7
4.5,5,293.8741693,-323.1214302,7
4.75,5,297.8026785,-326.4788395,7
5,5,294.727022,-323.5908818,7
4.75,5.25,306.2181039,-333.7741086,7
5,5,284.9371452,-315.3496965,7
4.75,4.75,296.0140461,-330.0803172,7
5,5,299.2660334,-331.1570799,7
5,5,316.1398741,-344.7487118,7
5,5,300.4868252,-331.6386801,7
5,5,300.1477269,-327.0219084,7
4.333333333,5,297.3723735,-326.1320025,7
5,4.75,292.9498987,-326.6773362,7
4.333333333,5,298.8820598,-323.9234498,7
4.75,5,299.1479307,-327.6582666,7
4.75,5,295.3620429,-323.8331565,7
4.75,5,324.5758771,-348.2573714,7
5,5,302.8371447,-333.874547,7
4.5,5,294.4302012,-320.9743067,7
5,-19,298.7497146,-333.4293242,7
4.5,5,299.8450158,-320.5838159,7
4.333333333,5,306.1838448,-331.6140015,7
4.333333333,5,303.1815795,-331.4783006,7
4.75,5,302.5997982,-331.2821667,7
4.25,5,303.8559182,-329.1638666,7
4.75,5,293.8671187,-322.6337094,7
4.25,5,301.2688813,-328.3350694,7
4.75,5,290.6257891,-317.5664295,7
4.5,5,312.9904107,-334.8371353,7
5,5,295.8126875,-316.3890206,7
5,5,313.728387,-339.774129,7
5,5,318.158754,-342.3512996,7
5,5,301.1574195,-325.5879674,7
4.75,5,292.8122177,-313.5490317,7
4.75,5,279.9776418,-312.4317721,7
5,5,302.2955366,-329.9007104,7
4.5,5,287.2379515,-310.0063273,7
4.75,5,288.8118967,-317.8936647,7
4.5,5,293.3665747,-317.304307,7
4,5,281.300563,-311.9089792,7
5,5,300.9972394,-325.1384448,7
4.666666667,5,301.316832,-325.1936831,7
4.75,5,295.0208857,-323.5994197,7
4.75,4.75,291.5371658,-318.4415973,7
4.75,4.75,299.6814439,-333.7982488,7
4.75,5,292.347526,-316.6462762,7
4.5,5,290.5856627,-316.1069818,7
4.333333333,5,282.7803633,-307.1372438,7
4.75,5,304.1800808,-330.6592481,7
4.75,5,303.0589336,-326.2873944,7
4.5,5,294.0674542,-316.7718578,7
5,5,305.8300505,-333.2364486,7
4.75,5,286.8752612,-311.2792002,7
4.75,4.75,277.2164186,-304.9633197,7
4.75,4.75,297.6776539,-321.5419199,7
4.666666667,5,294.1136591,-319.7879698,7
5,5,282.4511191,-312.0014039,7
4.5,4.75,291.8160044,-318.3892113,7
4.5,5,289.9727413,-313.6709347,7
4.75,5,299.3084112,-318.6640446,7
5,5,296.4855885,-322.0217817,7
5,5,296.7404364,-327.8822971,7
4.666666667,5,298.2130859,-324.7836111,7
4.75,4.75,297.1584793,-325.3855432,7
5,5,297.3584917,-324.238594,7
4.25,5,295.2916538,-321.383841,7
4.5,4.75,290.3081753,-309.8771093,7
4.5,5,300.9303008,-327.0454656,7
4.666666667,5,318.1657073,-342.0822914,7
4.5,5,297.5425466,-322.5176104,7
4.5,5,290.6751568,-309.8225004,7
5,5,315.5152173,-340.5443091,7
5,5,288.5821412,-321.0851822,7
4.666666667,5,289.6268823,-320.8228292,7
-46,4,92.59015226,40.07708088,8
-45.33333333,4.333333333,93.1477162,34.97725004,8
56,4.5,103.177215,29.67635878,8
-46,4.333333333,107.9402571,30.69277035,8
-45.66666667,5,112.5325267,26.54723444,8
-45.33333333,4.333333333,104.2838436,37.86357725,8
-47,4.666666667,107.5938139,38.18642845,8
-46.33333333,4.333333333,106.230343,26.82326569,8
69.33333333,5,103.5294949,30.32507955,8
-48,4.333333333,105.1284496,35.36136186,8
23.25,4.5,113.754007,21.09940997,8
70.66666667,4,107.1578338,22.04181691,8
54.25,4.25,84.60658292,36.92791089,8
47.25,4.75,91.33384819,31.23539293,8
49.5,4.5,85.85816662,39.92782095,8
-4.5,4.5,114.8558602,14.98187642,8
-48,4.333333333,103.1758889,26.95402187,8
20.75,4.75,108.9065303,27.31312931,8
75.66666667,4.666666667,110.4443295,24.95925271,8
81,5,97.9020935,27.80861357,8
-47.5,4,99.89810856,18.31385458,8
28.25,4.75,97.10096886,23.98058879,8
-45.66666667,4.333333333,107.472703,25.8267972,8
-46,4.333333333,106.8388484,26.75683295,8
-45.66666667,4.333333333,109.3674436,18.77811684,8
-45.33333333,4.333333333,115.5002445,17.46875836,8
-45.66666667,4.333333333,108.0042647,26.93910965,8
-7.5,5,113.861469,22.7464981,8
-45.66666667,4.666666667,100.9706364,30.72831237,8
-47,4.333333333,97.66310958,31.46746279,8
-46.66666667,4.666666667,89.7787434,30.00645935,8
-47,4.333333333,102.0271672,21.33499173,8
-47,4.666666667,103.1155134,20.70831551,8
-47.66666667,5,104.604129,25.4111944,8
-47.33333333,4.666666667,103.6371128,25.56951762,8
23.25,4.25,107.0359735,21.14116778,8
-47,4.333333333,107.3080457,27.32195784,8
-47.66666667,4.333333333,103.2852916,30.22836422,8
45.25,4.25,111.4681037,15.30597988,8
47.5,4.5,96.36270606,26.19154852,8
-7,5,98.93706006,24.50558106,8
20,4.333333333,82.27634548,29.74927713,8
-46,4.5,104.0071169,16.83838874,8
-45.25,5,92.03123827,19.58022559,8
-45.25,4,88.26210947,34.0761566,8
-48,4,102.0812668,31.4620637,8
-33.25,4.75,99.94340762,36.33432003,8
-46.66666667,4.333333333,104.0516419,29.00430239,8
-2.5,5,112.5583251,21.30818007,8
74,4.333333333,112.1470673,24.77314687,8
83.33333333,4.666666667,116.5438211,21.91086831,8
-47,4.666666667,108.0669428,27.40449339,8
-45.33333333,4.333333333,106.3263126,23.13555221,8
-47.66666667,5,106.8324242,31.63690874,8
-46.33333333,5,97.25891355,30.14150639,8
-47.25,4.25,92.3370877,32.12982081,8
-48,4.333333333,92.82464665,37.46739089,8
-46,4,88.98965987,34.48847283,8
-46.33333333,4.666666667,94.87729958,32.59728611,8
-46.33333333,4.333333333,94.59492181,30.42177572,8
-45.66666667,4.333333333,93.67142085,32.81435365,8
-46,4.333333333,95.42908864,23.52935592,8
-46,4.666666667,101.2553905,20.77330882,8
-46.33333333,4.333333333,107.0740558,17.12525292,8
-46.66666667,5,90.49087323,35.60056062,8
-46.33333333,4,94.28547794,34.28696315,8
-46.66666667,4.333333333,93.73571936,36.62731718,8
-46.33333333,5,90.08692652,35.84015139,8
60,4.333333333,96.41699143,34.46721248,8
-18.5,4.25,92.84993829,32.90700721,8
76,4,100.9659875,17.77701583,8
81.33333333,4.333333333,104.1682637,16.02528014,8
79.66666667,4.666666667,116.6672124,4.106944121,8
-90.5,4.25,104.2684509,5.376697898,8
16,4.25,95.4394183,35.1602877,8
49.5,4.25,94.81311283,26.64179734,8
51.75,4.5,87.13161161,35.56569913,8
34,4.5,87.73987244,43.04478796,8
18,4.5,112.1631194,10.94415489,8
-47.25,4.75,97.52533626,14.89465539,8
52.25,4.75,94.65251913,33.95403622,8
48.25,4.5,112.250578,12.65405484,8
50,4.5,97.25581295,29.32281501,8
45,4.4,89.9439804,32.7808415,8
-35.2,4.75,89.30722283,39.11181584,8
-44,4.4,81.9076983,33.4454211,8
50.25,4.5,95.5862862,18.17303133,8
46.25,4.5,97.96082913,26.39197815,8
36.2,4.5,91.31341813,32.41327641,8
31.4,4.4,104.7542778,22.3372843,8
30.4,4.8,95.55581868,26.20482115,8
46,4.8,103.4674921,25.06176882,8
-43.5,4.5,94.17129431,31.60949577,8
50,4.5,93.16855915,40.48100934,8
-45.5,5,96.48201035,35.56642252,8
20.4,5,85.59910966,42.28695069,8
55.75,4.6,84.73985496,42.87053621,8
43.5,4.75,99.27818661,43.70270661,8
54,4.75,89.25793519,43.69981053,8
-45.25,4.75,91.99039462,41.33981489,8
-45,4.75,94.64611005,38.71454158,8
-46.33333333,4,101.3560724,36.32865348,8
-45.66666667,4.666666667,103.6067138,25.57610466,8
90,4.333333333,110.6996767,23.97848034,8
-45,4.333333333,113.3114165,23.42888397,8
-45.33333333,4,109.5003848,21.88790557,8
-46,4.666666667,107.0154834,26.09561741,8
88.66666667,5,113.7530413,17.84102213,8
85.66666667,5,109.063422,21.556329,8
-45.66666667,4.666666667,115.3805835,17.30789422,8
-46,4.666666667,121.8506395,13.78518611,8
-48,4.333333333,112.5462502,26.95156869,8
-46.33333333,5,115.7989529,17.29829273,8
-47.33333333,4.666666667,115.9992248,19.68809413,8
-46.66666667,4.666666667,118.4834683,14.45765282,8
-47.66666667,4.333333333,116.8327624,14.20440954,8
-47.66666667,4.666666667,117.4999096,14.18302392,8
89.33333333,4.333333333,114.5989775,17.54556709,8
-48.33333333,4.333333333,117.3769809,16.73832251,8
-47.33333333,5,113.3472848,19.39899893,8
-47.66666667,4.666666667,120.8157437,8.607717256,8
-47.66666667,4.333333333,122.6502388,11.63371717,8
-47.66666667,4.333333333,120.775904,12.65278648,8
-48.33333333,4.666666667,122.6953382,12.14914894,8
-49,4,112.7252105,26.21920602,8
-47.33333333,4.333333333,119.3648613,22.76106779,8
-49.33333333,4.666666667,117.3677844,14.09933594,8
-48.33333333,4,134.406647,9.248618606,8
-49,4.333333333,117.7549685,11.85714423,8
-48.33333333,4.666666667,124.7374869,13.67816283,8
-48,4.333333333,115.2445876,17.77297251,8
-47.33333333,4.333333333,114.414913,16.90052772,8
-47.5,4.666666667,118.6355891,12.39504346,8
-48.66666667,4.5,119.7472177,10.61292665,8
-48.33333333,5,122.0748715,7.936200204,8
-48,4.333333333,118.2965442,18.65597252,8
-48.33333333,4,111.8026358,21.84890806,8
-49.66666667,4,112.0109541,19.17612862,8
-49,4.666666667,122.3641123,10.06995203,8
-48,4.666666667,116.898937,14.35837062,8
-49.5,4.333333333,120.032647,9.769824128,8
-48.66666667,4.5,124.4339308,-0.425722447,8
-48.33333333,4.333333333,120.6756374,5.10433302,8
-49.33333333,4.666666667,122.1574266,8.107592833,8
-8.5,4.333333333,120.8991308,7.160760369,8
-47.66666667,4.5,112.8458444,10.86750543,8
-48.33333333,4.666666667,119.8366292,9.193866778,8
-48,4,120.2552294,5.131886973,8
89,4.333333333,116.2746129,7.435552544,8
-49.33333333,4.333333333,120.8035715,7.307902024,8
-50.33333333,4.666666667,130.3792881,0.937282505,8
76,5,132.718845,1.492985538,8
-48.66666667,4.333333333,127.3487168,5.306728686,8
-47.66666667,4.666666667,112.8570217,13.38409881,8
-49,4.666666667,125.4469304,5.705680401,8
-47,4.666666667,114.0939777,12.67063202,8
-49,4.25,114.6294164,13.33717488,8
-48,4.333333333,119.6914269,15.86297174,8
-48.33333333,4,116.6069411,7.510994819,8
-47.33333333,4.666666667,116.6282243,11.08069373,8
83.33333333,4,112.0270412,7.87770363,8
80.66666667,5,119.3014586,3.15694161,8
-48,4.333333333,118.2569151,6.807036616,8
-47.33333333,4.333333333,110.6901331,9.912151976,8
-48.33333333,4.333333333,108.5051218,11.08981209,8
75.66666667,4,117.2455181,4.076417138,8
-49,4,115.1618537,4.250527869,8
-48.66666667,4.5,113.6891124,18.3687707,8
-49,4,120.057689,12.67415399,8
-48.33333333,4.333333333,124.6263245,-6.351691983,8
-48.33333333,4.333333333,116.1176423,6.447200361,8
79.33333333,4,114.248104,9.20148177,8
-49,4.666666667,107.9995334,12.13239418,8
-50,4.666666667,133.0650401,-9.198820181,8
-47.66666667,4.333333333,118.8711775,2.97956017,8
-48,4.666666667,111.6944572,7.986774536,8
15.66666667,4.666666667,118.5737485,0.451090996,8
-30.33333333,4.666666667,120.9860471,-3.356649324,8
-51.33333333,4.333333333,124.475629,1.259648947,8
-47,5,132.0197359,0.346884721,8
78.33333333,4.333333333,119.6325032,6.432332219,8
-48.66666667,4.333333333,120.655018,3.130640264,8
80,4.666666667,122.2731118,6.005298908,8
72.33333333,4.666666667,116.7601298,6.383053477,8
-48.66666667,4,131.1103588,1.783282542,8
16.33333333,4.666666667,126.4015226,-0.589274777,8
-48.66666667,4.333333333,110.7763892,17.46749738,8
-48.66666667,5,120.7015296,6.620682713,8
-47.66666667,4.333333333,117.4704349,8.019420314,8
-35,4.666666667,99.62502917,16.77015943,8
85,4.5,116.599269,2.210413116,8
-47.66666667,4.666666667,120.0104852,6.921723762,8
-47.33333333,4.333333333,123.4769513,2.357941489,8
-1.5,4.333333333,117.9722523,4.23361344,8
79.66666667,4.5,136.8801085,-4.143272176,8
-48,4.333333333,116.6320473,13.68651513,8
-48,4.666666667,124.655706,5.160148499,8
-47.66666667,4.666666667,123.6986618,3.691209153,8
-48,4.666666667,134.4294859,-1.509205907,8
-47.66666667,4.333333333,124.5158624,0.009840124,8
-47,4.333333333,125.8007824,-1.251139848,8
-47.33333333,4.333333333,141.3726749,-6.174526483,8
-47,4,144.1722945,-10.77818555,8
-47.66666667,4.666666667,127.1458072,-0.055494172,8
5,4.666666667,151.642073,-118.75157,9
5,4.666666667,151.8940437,-120.2646278,9
4.5,4.75,154.5669745,-119.7721763,9
5,4.666666667,152.3091268,-119.5402071,9
5,4,142.5048672,-107.8444902,9
5,4.333333333,150.7329406,-118.1631077,9
5,4.75,150.0955107,-120.7969199,9
5,4.333333333,155.2888818,-117.7202223,9
5,4.25,154.5411298,-119.7637434,9
4.75,4.5,166.8941816,-129.643038,9
4.75,4.75,153.7739512,-115.8897978,9
4.75,4.75,151.771206,-115.7251186,9
4.5,4.75,148.586467,-114.4687904,9
4.75,4.75,143.9718302,-107.4143269,9
5,4.75,154.1842567,-118.4964787,9
4.666666667,4.333333333,148.3011929,-113.2748525,9
5,4.5,152.8159676,-118.2749354,9
5,4.5,148.3726216,-113.7045222,9
5,4,151.3643238,-112.3901093,9
5,4.5,178.0785047,-130.0961914,9
4.75,4.25,176.4798931,-135.7920491,9
4.25,4.75,184.7198794,-134.4614716,9
5,4.25,157.1336419,-122.1137416,9
5,4.25,161.2217041,-122.6976564,9
4.5,5,155.899167,-115.387144,9
5,4.75,171.7898231,-124.9941968,9
5,4.25,154.1936539,-111.8076937,9
-26.75,4,153.3817973,-111.0715207,9
4.75,4.75,143.9990882,-109.6279138,9
5,4,148.2612891,-111.3072033,9
4.75,4.5,156.0412697,-119.7797242,9
5,4.333333333,139.7972717,-106.4414753,9
4.5,4.5,139.4717735,-105.5225693,9
5,4.5,147.5206504,-114.3447329,9
4.666666667,4.666666667,144.7929683,-110.2256966,9
5,4.25,147.1991644,-110.8525365,9
4.333333333,4.666666667,141.7761945,-107.7428759,9
4.5,4.5,159.8504665,-112.5440832,9
5,4.5,153.4089895,-111.5248357,9
6,4.75,154.8562911,-105.3400737,9
-90.25,4.5,166.3801927,-125.7933839,9
-43.25,4,171.3930683,-125.076102,9
7,4.75,166.6862303,-115.9286289,9
4.5,4.75,160.3913917,-101.7590276,9
5,4,159.4015966,-119.865397,9
5,4.25,156.4929217,-111.0463995,9
6,4.4,155.9837503,-109.64856,9
4.75,4.25,151.3517282,-109.4997527,9
4.75,4.5,145.2466994,-101.1042057,9
4.8,4.2,143.3174991,-99.14976422,9
4.75,4.5,142.4625854,-100.8858441,9
5,4.5,146.3125754,-106.8692697,9
5,4,142.112333,-99.37090606,9
4.75,4.5,159.6445783,-108.8582587,9
5,4.25,166.8867174,-125.2606826,9
4.75,4.75,153.8760519,-108.1551138,9
4.75,4.5,162.0212935,-110.0569026,9
4.75,4.5,159.7436469,-110.4927001,9
4.75,4.25,149.7587312,-93.78110765,9
4.5,4.5,153.2087661,-108.0435896,9
5,4,159.9618596,-110.9407837,9
-64.8,4.6,157.424372,-101.213544,9
4.25,5,161.3615441,-110.0006409,9
20.4,4.4,159.7325661,-108.1610438,9
4.5,4.75,153.7257769,-109.9349293,9
4.6,4.6,161.7080943,-104.3061777,9
5,4,161.6068224,-110.81467,9
5.8,5,151.6865576,-108.1104034,9
-10.4,4.4,161.4618998,-117.6298282,9
6.8,4.2,155.9604596,-110.0490319,9
7.8,4.6,165.5992227,-120.3801339,9
4.5,4.5,159.6419055,-111.1321585,9
-36,4.25,147.8738523,-103.371807,9
6.6,4.4,159.4419133,-110.4011773,9
6.6,4.2,160.4960965,-109.943962,9
4.6,4.6,156.5192363,-103.6507474,9
6.4,4.4,157.080064,-110.2538019,9
4.8,4.2,146.6906067,-98.77367575,9
4.8,4.4,163.5736295,-110.5325648,9
21,4.8,146.9880382,-90.02321112,9
-43.6,4.4,152.0215094,-108.1974003,9
5,4,157.1916928,-104.4044508,9
4.4,4.4,134.966114,-85.10722313,9
4.8,4.8,161.9169458,-111.090681,9
4.5,4.5,149.3095083,-101.405269,9
5,4,162.9967448,-109.4054739,9
4.6,4.6,152.9779736,-101.4229,9
4.5,4.5,156.9866608,-104.8009687,9
4.5,4.5,157.5221584,-105.7342411,9
5,4.25,166.023379,-112.314801,9
5,4,162.9940694,-108.4678531,9
4.6,4.4,173.6110619,-120.2969122,9
5,4.25,171.8300973,-117.2172681,9
4.666666667,4.666666667,151.5923537,-99.93479856,9
5,4,157.963265,-105.3443017,9
5,4.333333333,153.9698791,-106.5903958,9
4.6,4.6,163.498626,-110.9231342,9
6,4.4,159.9071563,-110.07451,9
4.8,4.8,166.5935173,-111.896957,9
5,4,166.3730793,-113.0808765,9
-71,4.6,160.9067608,-105.5315279,9
-71,4.2,157.9437912,-105.1965769,9
-72,4.8,157.3222411,-104.1719417,9
6,4.4,173.8623495,-123.7639432,9
6.2,4.4,166.3486569,-111.4568472,9
4.8,4.2,166.5233585,-108.9389475,9
6.4,4.4,167.6039828,-103.0076366,9
4.4,4.6,169.5353805,-116.9599916,9
53.8,4.2,159.8362253,-104.2847459,9
5,4.4,167.8199011,-104.5900785,9
5,4,166.6162582,-114.0590039,9
-8.8,4,167.6809381,-108.4392077,9
6,4.2,169.8313565,-115.2679601,9
5,4,160.8498406,-100.8061461,9
5.8,4.4,171.571302,-108.5506088,9
4.6,4.6,159.633622,-101.2958999,9
5,4,149.1480562,-88.6169952,9
4.8,4.4,170.595756,-108.6818813,9
-10.6,4.4,156.5818086,-101.6809938,9
5,4,156.3870742,-101.6441926,9
4.75,4.25,168.7474441,-108.3647865,9
5,4.5,159.395482,-106.5116029,9
4.5,4.5,160.4441066,-103.6870895,9
5,4.25,165.226672,-110.9061424,9
4.75,4.25,158.5634631,-98.42720297,9
4.5,4.5,158.0758934,-103.0857369,9
4.75,4.5,172.3535123,-119.2729458,9
4.75,4.5,178.2652667,-128.2674591,9
5,4,166.4354425,-107.7336093,9
4.75,4.25,161.3317208,-106.8322337,9
4.5,4.5,167.8786044,-109.2644902,9
5,4.5,191.2414266,-134.9656337,9
4.75,4.25,176.1706161,-118.885324,9
4.333333333,4.666666667,178.2364538,-122.3000788,9
5,4.5,183.7186284,-130.7977279,9
4.5,4.5,191.6841891,-129.2687915,9
4.75,4.5,184.2827984,-124.0405645,9
4.666666667,4.666666667,186.5598489,-125.565253,9
4.75,4.25,179.6485452,-122.3093124,9
4.25,4.75,172.0861861,-111.8447103,9
5,4.333333333,184.5440585,-123.1121286,9
4.25,4.75,187.4345563,-124.8564973,9
4.333333333,5,179.5834989,-123.510742,9
4.75,4.5,172.064874,-116.5556631,9
5,4,177.5218133,-120.9931312,9
5,4.25,171.9861242,-119.9801348,9
5,4,187.8364868,-132.1745127,9
4.75,4.25,165.8461156,-113.0812793,9
4.666666667,4.666666667,176.8154873,-124.7125381,9
5,4,175.4944857,-122.6368173,9
4.666666667,4.666666667,174.2150838,-120.8649364,9
4.75,4.25,180.3252876,-127.9699577,9
4.666666667,4.666666667,172.24544,-123.5909046,9
5,4,167.4634769,-118.1595744,9
4.25,4.75,171.2816252,-118.7117961,9
4.666666667,4.333333333,166.1924992,-112.7219603,9
4.75,4.25,163.30804,-110.6640642,9
5,4,167.2201787,-119.1297168,9
5,4,162.2695239,-112.909109,9
5,4.333333333,176.2814511,-128.8314594,9
4,5,190.4405495,-130.7931597,9
5,4.75,181.1093207,-128.5360707,9
4.666666667,4.666666667,180.6073024,-125.4510838,9
4.75,4.25,179.8990587,-125.603216,9
4.666666667,4.666666667,178.9927379,-127.6681497,9
4.666666667,4.666666667,172.9729285,-121.9883044,9
4.666666667,5,172.8899596,-124.6283604,9
4.666666667,4.666666667,176.4009763,-127.5624703,9
4.25,4.75,173.9631993,-121.7945577,9
4.333333333,5,182.1157952,-128.0313546,9
4.666666667,5,179.9017744,-131.386054,9
4.5,4.75,174.0754873,-122.5049856,9
4.666666667,4.666666667,178.8189487,-127.1547629,9
4.5,5,166.982596,-118.4801666,9
4.666666667,4.666666667,164.7518591,-118.2867304,9
4.666666667,4.333333333,165.4304639,-117.6542224,9
4.666666667,4.666666667,162.6336706,-117.366285,9
5,5,167.4362694,-121.6350691,9
5,4.333333333,171.1929335,-124.1003812,9
4.666666667,4.666666667,165.586386,-119.8613408,9
4.5,5,172.0563471,-122.7194693,9
4.666666667,4.666666667,164.7124203,-118.904345,9
4.666666667,4.333333333,173.6276813,-125.4151046,9
4.666666667,4.333333333,168.5812707,-122.7330047,9
5,4.333333333,166.5906545,-119.9447122,9
4.666666667,4.333333333,165.8104284,-119.0086905,9
4.75,4.75,166.6304127,-119.4853477,9
5,4.666666667,168.3518898,-123.810412,9
4.5,4.75,161.4539651,-115.1831138,9
4.333333333,4.666666667,168.1571347,-121.26314,9
5,4.333333333,172.7419929,-127.0522432,9
4.666666667,4.666666667,167.517822,-121.9604536,9
4.666666667,4.333333333,160.0432426,-114.840382,9
4.75,4.5,162.7331285,-118.4317469,9
4.666666667,4.666666667,167.0499523,-123.1767695,9
4.666666667,5,167.2485109,-122.3820569,9
4.666666667,4.333333333,165.1987232,-119.1532308,9
4.75,4.25,160.8176838,-116.8566988,9
5,4,160.8152478,-115.0876635,9
4.666666667,4.333333333,158.5777311,-114.9366054,9
4.333333333,4.666666667,162.4562279,-116.3626644,9
5,4.666666667,165.0592205,-122.2746772,9
5,4.333333333,162.0562943,-120.9096979,9
4.25,5,161.0175357,-115.0653297,9
4.666666667,4.333333333,154.9792549,-110.0065372,9
4.75,4.75,160.4202706,-118.1511712,9
4.333333333,4.666666667,165.8524437,-119.8031503,9
5,4.333333333,153.358922,-112.868428,9
4.333333333,4.666666667,162.6128378,-116.7320437,9
5,4,165.1377586,-120.0266331,9
4.333333333,4.666666667,158.6817457,-113.5654457,9
5,4.333333333,159.3868347,-119.0167618,9
5,4.75,165.7371442,-122.2632366,9
4.666666667,4.666666667,165.0479158,-121.5626883,9
4.666666667,4.333333333,169.5318898,-127.1678717,9
4.666666667,4.666666667,167.3489016,-121.9897151,9
4.666666667,4.333333333,163.3703804,-117.6657486,9
4.666666667,4.333333333,165.7564782,-123.850317,9
5,4.5,160.9675798,-120.4353561,9
4.333333333,4.666666667,149.0954506,-110.937244,9
5,4.666666667,162.5486703,-123.5459334,9
4.75,4.25,163.9165971,-123.4418247,9
4.666666667,4.333333333,171.7504978,-129.520411,9
4.666666667,4.666666667,172.2322604,-129.0784634,9
5,4,166.6030043,-120.5634978,9
4.75,4.5,163.0736343,-120.523825,9
5,4,163.4204076,-123.453123,9
4.666666667,4.666666667,165.2494894,-122.9212175,9
4.333333333,4.666666667,163.4709932,-121.1565606,9
5,4,164.1387021,-124.6158998,9
5,4,163.0484469,-124.1931861,9
4.333333333,4.666666667,164.2767173,-123.313062,9
4.666666667,4.333333333,167.1052694,-124.6072093,9
4.666666667,4.666666667,167.5807593,-122.8709092,9
4.666666667,-123.3333333,169.1529821,-126.3080305,9
5,4,167.5313903,-126.794617,9
4.666666667,4.666666667,166.1430392,-125.1210161,9
5,4.333333333,167.5538926,-127.9994893,9
4,5,161.9778322,-119.1856393,9
4.75,4.5,169.2853911,-121.5271248,9
5,4.333333333,165.0123225,-118.7074694,9
4.75,4.5,173.6624816,-125.8625562,9
4.666666667,4.666666667,172.7764149,-127.5654532,9
4.5,4.5,166.7803197,-124.1100129,9
5,4,162.5508779,-120.4749103,9
4.666666667,4.666666667,165.2913374,-120.8151276,9
5,4,171.8625628,-129.1719369,9
5,4.333333333,173.2407797,-131.0455347,9
4.666666667,4.666666667,173.6468448,-128.8927798,9
4.666666667,4.666666667,173.1467934,-129.3853277,9
4.666666667,4.666666667,182.3072877,-133.9593114,9
5,4.333333333,171.9219492,-130.1293318,9
4,5,161.0726849,-117.7887782,9
5,4.666666667,175.215759,-130.139973,9
4.666666667,4.333333333,166.152275,-122.3630728,9
5,4,168.1740702,-127.9170941,9
5,4.333333333,169.5591185,-129.2005291,9
5,4.333333333,170.3653375,-129.700102,9
4.666666667,4.666666667,171.6045412,-129.7879551,9
5,4.666666667,176.1803633,-133.94378,9
5,4.666666667,170.2275219,-128.1542301,9
5,4.5,170.2156838,-130.0870208,9
4.666666667,4.666666667,170.0721522,-128.7442728,9
4.333333333,4.666666667,163.0220356,-121.5894902,9
4.666666667,4.333333333,161.8939193,-121.0162864,9
4.666666667,4.666666667,161.9731144,-119.8732861,9
4.666666667,4.666666667,169.1325291,-127.9698623,9
4.666666667,4.666666667,166.7020298,-124.6577976,9
4.333333333,4.666666667,166.2643863,-124.1051498,9
5,4.666666667,178.3702395,-134.1073198,9
5,4.25,179.8753431,-135.1367766,9
5,4,173.0992809,-130.251251,9
5,4,168.1366234,-125.2425936,9
4.666666667,4.333333333,162.2433683,-118.9734493,9
5,4.333333333,177.4940666,-136.2173865,9
5,4.333333333,171.5999966,-129.1303087,9
5,4.333333333,169.8773855,-129.8420386,9
4.333333333,4.666666667,167.7983559,-124.3415268,9
4.333333333,4.666666667,173.283383,-129.692836,9
4.333333333,5,175.4256973,-130.1883989,9
4.666666667,4.333333333,177.4213904,-132.7500233,9
4.666666667,4.333333333,173.0114158,-126.599884,9
4.666666667,4.666666667,178.7610577,-136.2326322,9
5,4.333333333,184.0831448,-140.6762839,9
5,4.333333333,185.6086043,-137.6709887,9
4.75,5,152.1460777,-111.4594563,9
5,4,156.56683,-117.6718022,9
4.333333333,4.666666667,167.5367743,-126.2572972,9
5,4.333333333,157.3124269,-120.1066707,9
6.25,4.75,164.856923,-126.6960985,9
4.75,4.5,167.6418659,-126.7979514,9
5,4.5,156.1839855,-122.3587783,9
5,4,163.7321067,-119.4129893,9
4.4,4.6,162.5998662,-131.2187943,9
-31,4.6,164.5860997,-124.1000071,9
5,4.25,154.7388813,-117.7330312,9
4.75,4.25,157.8186457,-118.4634337,9
4.5,4.75,153.2643011,-113.7177385,9
5,4,145.3296738,-108.5332477,9
4.5,4.75,159.1317316,-111.4987748,9
5,4.5,173.7079764,-133.0803585,9
5,4.25,162.4858371,-127.4134792,9
5,4,169.7721367,-130.191996,9
4.75,4.25,171.134343,-125.8886405,9
4.5,4.5,160.7573274,-120.4585251,9
4.5,4.5,161.3413743,-117.6292983,9
4.666666667,4.333333333,162.3737551,-120.0108137,9
4,5,169.7199008,-129.7570605,9
4.75,4.25,159.8708353,-109.7545536,9
5,4.25,280.2804185,-197.9372224,10
4.75,4.5,267.5572222,-189.3438447,10
5,4.25,273.0994091,-197.8412105,10
5,4.5,264.2176142,-177.9979553,10
5,5,274.6205525,-192.1228067,10
5,4.5,261.752317,-181.4043402,10
4.75,4.5,261.8610398,-184.3137088,10
4.5,5,275.1950531,-185.4620334,10
4.8,4.4,283.6193659,-190.7028501,10
5,4.25,273.5393944,-195.7616837,10
4.75,4.75,288.5264661,-202.9314169,10
5,4.25,275.2717326,-190.8654087,10
5,4.75,298.3319731,-200.7911037,10
5,4,293.9311906,-201.088547,10
4.6,4.6,277.0820593,-190.4359774,10
5,4.25,293.1929671,-208.7586432,10
4.75,4.5,281.1327825,-189.156626,10
5,4.75,270.8749637,-184.3781766,10
5,4.4,232.1277012,-169.2576949,10
5,4.6,253.4738128,-183.7452464,10
5,4.5,284.4046339,-202.49131,10
6.2,4.6,239.1003652,-166.7752761,10
-18.4,5,286.1242417,-200.4931684,10
5,4.5,286.5139197,-190.5907529,10
4.75,4.75,271.0666896,-181.2460905,10
5,4.75,266.7345447,-178.4382314,10
4.75,4.5,269.9662554,-178.8829782,10
5,4.25,257.4920647,-178.8692304,10
5,4,258.575586,-175.5684253,10
4.5,4.75,272.856808,-184.1462075,10
5,4.75,295.7778165,-211.6988476,10
4.5,4.75,277.4014764,-195.6235232,10
5,4.5,280.3886882,-196.3567494,10
4.75,4.75,270.931811,-185.2518625,10
4.5,5,280.041674,-184.1240012,10
5,4.333333333,276.6413027,-186.1976607,10
4.8,4.2,298.685843,-211.46197,10
5,4.75,279.6100045,-188.3234987,10
4.8,4.8,260.9122718,-171.7644944,10
5,4.25,255.0184117,-166.9564709,10
5,4.75,256.5139939,-165.7026992,10
-28.33333333,4.666666667,265.1826521,-179.9505467,10
5,5,276.09304,-185.8161476,10
5,4.5,257.9304567,-174.2590029,10
5,4.8,269.3854095,-176.4844194,10
5,4.5,255.0254275,-167.9313335,10
4.8,4.8,264.9358895,-169.1822607,10
4.75,4.5,263.29617,-167.2028832,10
4.6,5,270.2499607,-176.0319751,10
4.75,4.75,251.183276,-163.9187532,10
5,4.6,262.4023735,-172.4011829,10
4.75,4.75,257.6977419,-170.8776883,10
4.75,4.75,262.5839979,-178.2625021,10
4.8,4.6,262.1932741,-175.4292809,10
5,4.5,259.6557882,-167.6363896,10
5,4.75,255.8282135,-165.8280313,10
4.5,5,270.7139527,-180.9933065,10
5,4.75,275.0626145,-183.3949807,10
4.75,4.25,263.397385,-176.6497673,10
5,4,277.0992192,-191.9489239,10
4.75,4.5,303.1474729,-215.1006468,10
5,5,269.4404838,-166.3022388,10
5,4.75,268.0062801,-190.8577717,10
5,4.25,258.4607218,-163.5753915,10
4.5,5,264.1045369,-174.439495,10
4.75,4.75,270.0549722,-174.8959142,10
5,4.666666667,281.8720493,-182.3029892,10
5,4.4,279.7315477,-194.7165485,10
4.75,4.75,275.1562794,-191.7341691,10
4.75,4.5,255.896667,-174.4693164,10
5,4.75,277.6875906,-188.6017297,10
5,4.75,287.6066435,-202.5080409,10
5,4.5,283.4063195,-191.551453,10
4.75,4.75,296.1177712,-198.4886303,10
4.75,5,307.5012382,-213.1146053,10
4.333333333,5,279.8612038,-186.7167981,10
-18.75,4.75,256.6096157,-174.1892527,10
5,4.75,272.8572553,-180.0259449,10
5,4.5,279.4104319,-186.409072,10
5,4.25,285.4213822,-201.2980169,10
5,4.5,280.5407979,-200.4324355,10
4.8,4.6,287.5818852,-212.2543569,10
5,4.25,281.9367465,-201.7451675,10
4.8,4.8,292.5831282,-209.5723255,10
5,4.75,274.2367934,-172.0257395,10
5,4.25,252.4761341,-167.9084812,10
4.75,4.75,287.2060455,-199.7811728,10
4.666666667,5,279.9676027,-192.5648478,10
5,4.75,289.104713,-196.8671359,10
5,4.5,274.8076986,-182.5662355,10
4.75,4.75,274.8611598,-184.085476,10
5,4.25,268.8425172,-178.4518781,10
4.666666667,5,271.6289809,-183.7942389,10
5,4.75,274.2975106,-181.7148475,10
4.75,5,284.3935258,-191.8267958,10
5,4.6,272.2996009,-184.5001031,10
5,4.25,276.5227469,-180.3232957,10
4.8,4.4,276.2678638,-185.9747019,10
5,4.25,298.5180971,-204.13083,10
5,4.75,293.325713,-196.373744,10
5,5,289.4138313,-196.6151002,10
5,4.5,284.7896971,-195.225236,10
5,5,266.613528,-177.7159017,10
4.666666667,5,287.5501621,-197.388067,10
5,4.5,276.9998696,-184.2744164,10
4.75,4.5,283.0619052,-192.3616687,10
5,4.5,298.9353183,-203.0708452,10
4.75,5,269.8110237,-177.0520348,10
5,4.5,283.3206687,-197.9288449,10
5,4.5,282.8155738,-192.9926418,10
4.5,5,280.652241,-189.94725,10
4.5,4.75,270.8721655,-176.6130776,10
5,4.75,291.3176136,-204.4817247,10
4.75,4.75,283.5066318,-197.1408356,10
4.8,4.8,316.8265637,-221.4542116,10
5,5,300.7605578,-212.3159127,10
5,4.333333333,298.9768494,-216.2134104,10
5,4.75,298.8930928,-213.7685401,10
4.5,5,299.550134,-213.2884563,10
4.5,4.75,293.1840559,-200.4989035,10
5,4.5,293.6364184,-203.8525826,10
5,5,302.2947654,-210.7644414,10
5,4.25,295.5270365,-210.0314779,10
5,4.75,298.4497082,-214.63406,10
5,4.4,298.1446257,-218.9292544,10
5,4.75,304.3336561,-217.068474,10
5,4.75,296.8901235,-206.4832252,10
4.75,4.75,291.0250664,-201.5028031,10
4.75,4.5,282.77698,-197.5524113,10
4.75,5,283.878722,-198.6034369,10
4.5,4.5,293.7765197,-198.5094152,10
5,4.25,298.6170731,-207.4161784,10
5,5,290.1752359,-203.4159608,10
5,4.25,291.3717354,-204.6307767,10
5,4.6,280.7279855,-200.1558927,10
5,4.8,285.0455855,-186.6414922,10
4.75,4.75,287.890448,-186.3171367,10
5,4.75,299.8603659,-201.5435103,10
5,4.666666667,281.9267211,-190.4266944,10
5,4.5,280.3880651,-189.8259425,10
4.666666667,4.666666667,290.4041457,-193.2909614,10
4.666666667,4.666666667,297.07375,-197.3698338,10
5,5,308.9425992,-210.0139632,10
4.75,4.75,281.1221913,-189.2910633,10
5,4.5,257.0130013,-175.9370693,10
-89.75,5,296.1947969,-190.1829921,10
4.75,-91.25,266.8506749,-177.4449282,10
4.666666667,5,292.5712062,-195.3588951,10
5,4.666666667,302.7775437,-204.5717219,10
4.75,5,296.4227185,-198.649511,10
5,5,313.680576,-215.7352844,10
5,5,318.9000848,-218.7041801,10
5,4.75,295.5116902,-201.5431123,10
4,5,274.3228139,-182.4486571,10
4.75,4.75,278.1022371,-179.3207628,10
5,4.5,279.5639341,-181.6001452,10
4.75,4.75,312.4709628,-209.1382792,10
5,4.5,306.6513529,-216.9455687,10
5,4.5,296.5601415,-202.3703056,10
5,4.5,301.2937031,-205.2320917,10
5,4.333333333,301.5714985,-215.2855737,10
4.75,4.75,302.6525361,-205.1596048,10
5,4.666666667,310.6083646,-208.8931571,10
5,4.5,298.4160439,-204.5542173,10
5,4.333333333,301.6311092,-212.5458356,10
4.75,5,313.0101932,-213.2210689,10
4.666666667,5,314.0512722,-212.6306769,10
4.75,4.75,303.1141598,-207.0578595,10
5,4.75,326.8811542,-228.8358639,10
4.5,5,298.5458235,-195.3787847,10
5,4.666666667,306.3999122,-203.0270666,10
5,4.5,302.3828571,-205.2123992,10
5,4.6,302.1216548,-205.0754773,10
4.666666667,4.666666667,322.8659234,-216.4944182,10
4.75,4.5,315.1050904,-213.0034358,10
4.666666667,4.666666667,321.0874971,-218.2026873,10
4.666666667,5,325.6858816,-217.33395,10
4.666666667,4.333333333,326.8647396,-223.8433716,10
5,4.666666667,327.6464541,-229.2219346,10
4.666666667,4.666666667,309.8089971,-204.6335954,10
5,5,323.7205925,-226.1791391,10
5,4.5,315.6950279,-221.8066076,10
5,5,314.5544341,-215.4954862,10
4.333333333,5,309.8571265,-202.4960381,10
4.5,4.75,307.54845,-203.9218686,10
5,4.666666667,307.8631708,-206.0111453,10
5,5,314.390248,-211.5094104,10
5,5,310.2383381,-206.6710441,10
4.75,4.75,297.6938964,-197.3215031,10
5,5,311.0457116,-216.3261622,10
5,4.5,314.021789,-214.9153958,10
4.666666667,4.333333333,319.84064,-223.1162121,10
5,4.666666667,321.8051892,-218.9051056,10
5,4.666666667,313.502019,-216.3148975,10
5,4.5,315.7304267,-216.6466277,10
5,4.666666667,337.7541963,-242.7512448,10
4.666666667,4.666666667,287.5961886,-197.4464638,10
5,4.5,284.9917377,-194.3276716,10
5,4.666666667,300.6849489,-214.2561198,10
5,4.666666667,309.05371,-214.3659335,10
5,4.666666667,291.0719195,-195.2730177,10
5,4.666666667,320.0425549,-221.981976,10
5,4.666666667,303.5189165,-216.9336667,10
4.666666667,4.666666667,300.2758401,-204.2123194,10
5,5,297.2163278,-208.9754784,10
5,4.75,291.6364442,-204.5602413,10
5,5,294.5655922,-203.8184052,10
4.666666667,4.666666667,305.6676768,-214.3804349,10
5,5,318.4055681,-225.513479,10
5,4.75,290.8887186,-207.5696642,10
5,4,301.8261005,-210.4150874,10
5,4.666666667,299.6872444,-209.3578351,10
5,4.75,283.7024906,-198.687714,10
4.666666667,4.333333333,289.8449813,-196.8194981,10
5,4.5,272.5473386,-187.840007,10
5,4.25,280.9327113,-189.9435743,10
4.75,4.75,298.2955495,-204.9363539,10
4.75,4.5,290.426572,-201.31903,10
5,4.666666667,291.6639136,-198.2752674,10
5,4.25,289.1199508,-204.6939615,10
5,5,287.9279046,-196.6721074,10
5,5,297.7491932,-205.0182223,10
5,5,309.030397,-215.3414253,10
4.75,4.75,310.195605,-212.9301572,10
5,4,300.8349003,-208.8153817,10
5,5,293.4023911,-199.8277986,10
4.75,4.75,288.9486245,-195.7509611,10
4.75,4.75,269.1974558,-179.4281314,10
4.8,4.6,263.0427038,-172.9361537,10
4.8,4.6,262.4972158,-175.8271401,10
4.2,4.8,263.6429136,-185.2768088,10
5,4.6,264.5105118,-175.5195018,10
5,4.4,266.7440049,-178.3982676,10
5,4.5,277.1866651,-186.1508971,10
4.6,4.8,266.725029,-175.1894431,10
4.75,4.75,261.3688833,-167.0832534,10
5,4.6,281.4577116,-189.4650226,10
4.8,4.8,262.5167844,-182.604633,10
5,4.25,262.876257,-180.5281115,10
5,4.4,280.1627268,-194.4656892,10
4.75,4.75,275.8149987,-190.5296294,10
5,4.25,276.9911791,-191.1703111,10
5,4.5,270.1988446,-175.5146704,10
4.75,4.75,273.0298976,-184.9741621,10
5,4.2,275.6040059,-195.745443,10
5,4.5,274.5180459,-185.0339595,10
5,4.5,293.8412229,-208.6808345,10
5,4.8,299.8528642,-213.0348871,10
5,4.75,290.3233063,-212.114393,10
4.75,5,302.0193376,-214.7279524,10
4.5,4.5,293.2676301,-202.3680615,10
5,4.75,302.0684839,-219.4041285,10
4.8,4.4,294.6757117,-216.0967363,10
4.75,4.5,278.2179493,-180.827656,10
5,4.4,277.515124,-178.9704457,10
5,4.5,268.5230418,-181.4111114,10
4.25,4.75,261.6487794,-170.5766054,10
4.6,4.6,288.6979975,-191.2735343,10
-20.5,4.5,281.2161339,-190.1453737,10
4.6,5,274.3882772,-179.8307645,10
5,5,286.7492352,-193.9423717,10
5,4.6,269.5912947,-177.2954148,10
4.75,4.75,262.7016871,-170.6478153,10
5,4.8,263.0782617,-181.1147797,10
4.8,4.8,271.1409906,-183.626121,10
4.5,4.75,254.2838613,-165.8522605,10
5,4.4,274.101033,-176.9255369,10
5,4.6,265.5070445,-169.9895369,10
5,4.4,266.3075416,-166.0971909,10
4.75,4.5,266.4098339,-172.1901497,10
4.75,4.75,269.5580224,-183.7294303,10
4.8,4.8,266.3018414,-175.2053132,10
5,4.5,269.1026161,-175.7417016,10
5,4.6,273.2462559,-189.0222079,10
4.5,4.75,269.0792055,-178.6657167,10
5,4.4,261.5637503,-174.2803468,10
4.75,4.75,262.6276748,-169.2014893,10
4.75,4.25,266.557138,-173.798951,10
4.5,5,263.1205844,-176.2100735,10
5,4.5,279.9355798,-198.5588015,10
5,4.5,271.0743711,-183.291191,10
4.75,4.75,269.5388178,-176.7416565,10
29.8,4.6,271.4255297,-168.7778179,10
-38,4.25,270.0439406,-178.6668208,10
6,4.75,273.3787724,-173.6083943,10
5,4.5,282.5290928,-187.8154393,10
4.75,4.5,273.8273271,-176.7358327,10
5,4.4,284.9276177,-185.9305213,10
5,5,281.8345837,-185.5076464,10
5,4.75,286.1118609,-186.7320463,10
5,4.6,283.8061757,-189.0646063,10
5,4.75,308.2319835,-214.6962931,10
5,4.5,287.6364309,-189.5509075,10
4.8,5,289.958716,-185.7972485,10
4.8,4.6,291.8347773,-194.1518098,10
5,4.5,281.5629158,-186.6342724,10
4.75,5,289.0737384,-189.5551787,10
4.8,5,312.198859,-201.3312365,10
5,4.5,288.9963388,-190.9082931,10
5,5,295.4751062,-196.3416984,10
5,4.2,292.3796216,-198.7417851,10
4.75,4.75,299.4940394,-195.4342103,10
5,5,296.2561329,-200.9610063,10
4.5,4.75,297.7320307,-194.8615165,10
4.75,4.5,308.2645609,-204.8749282,10
5,4.75,308.8289057,-207.860096,10
5,4.5,304.6999475,-202.2750141,10
4.5,5,308.9385206,-195.140151,10
4.5,4.75,287.21496,-187.2449424,10
4.75,4.5,279.243502,-184.1554764,10
4.75,4.75,302.8538224,-190.9095963,10
5,4.75,295.2582377,-189.962542,10
5,4.5,301.8516688,-209.2162863,10
4.75,5,295.9543047,-194.5424258,10
4.75,5,315.3906868,-205.2454889,10
5,-90.25,288.7234069,-184.4910876,10
5,4.5,290.3066191,-183.2473972,10
4.75,5,292.3979183,-194.8537297,10
5,4.25,296.4373592,-193.2325383,10
4.75,4.5,301.5686167,-193.6359395,10
4.75,4.25,289.8252831,-189.9850371,10
5,4.75,287.1060582,-190.8771311,10
5,5,297.8352784,-202.8161769,10
5,4.75,290.9769285,-194.1714671,10
5,4.75,294.4965148,-189.2229732,10
5,5,281.4390701,-185.8627201,10
4.75,4.75,296.528893,-193.4252902,10
4.75,4.75,301.9283739,-198.6034155,10
5,4.75,291.528232,-186.2116075,10
4.8,4.6,280.9056177,-186.9600951,10
5,5,288.6187819,-196.4137003,10
5,4.5,293.4073958,-192.6001316,10
4.2,4.8,305.6008496,-201.0345854,10
5,4.5,290.5069559,-189.7459086,10
4.5,5,304.6699281,-195.5109668,10
4.75,4.75,295.4274577,-198.3005816,10
5,4.5,302.3875273,-198.9056724,10
4.5,4.5,304.6044496,-198.9912613,10
4.75,4.5,309.5346242,-209.111542,10
5,4.333333333,298.9011966,-190.203602,10
4.75,5,296.2380186,-194.9569075,10
4.5,4.75,291.8712981,-184.6619453,10
4.666666667,5,293.1877621,-183.2123194,10
5,5,314.0252388,-205.0077298,10
5,4.25,300.980045,-202.5090375,10
-13.75,4.75,277.9945646,-178.0264163,10
4.75,4.75,275.2500843,-169.472504,10
5,4.5,279.6151837,-179.6582862,10
5,4.25,268.5687454,-169.4212973,10
4.5,4.75,276.968586,-177.1116623,10
4.5,5,279.5491478,-179.3196642,10
5,4.75,292.1655684,-185.7709607,10
5,4.75,295.1629148,-193.7928761,10
5,4.75,290.6962417,-183.418795,10
5,4.5,287.0961141,-182.3448221,10
4.75,4.75,300.5307894,-196.3305527,10
5,4.75,302.2058551,-200.9788599,10
5,4.25,288.5386646,-186.8111452,10
4.5,5,279.321657,-174.9313737,10
4.75,4.5,277.9633828,-172.6304346,10
4.75,4.75,282.1515864,-179.303519,10
5,4.25,276.449915,-173.3468531,10
4.8,4.8,285.5144882,-179.1346329,10
4.75,4.75,278.8177526,-171.441368,10
4.75,24.25,66.22475715,-80.0773186,11
4.166666667,4.166666667,35.08684636,-54.80562798,11
4.166666667,4.333333333,34.74358435,-61.43813642,11
4.2,4.4,30.56936551,-55.29903768,11
4,4.166666667,32.11079538,-55.47474662,11
4.2,4,38.18288176,-55.46486496,11
4.5,4.333333333,32.73927019,-48.35100891,11
4.166666667,4.166666667,43.35987266,-62.97130325,11
4.4,4.4,41.74740613,-59.34194994,11
4,4.2,36.54814923,-54.493776,11
4,4.2,37.95572797,-56.31482014,11
4,4.5,40.74077892,-58.09064448,11
4,4.6,35.73039494,-52.93587606,11
4,4.333333333,46.57958669,-62.87444172,11
4,4.6,46.90117098,-60.90673259,11
4,4.2,36.63919671,-59.47386094,11
4.2,4,52.15720219,-68.65979158,11
1.666666667,1.333333333,55.98457591,-74.22313766,11
2.2,2.8,75.65287528,-87.34647632,11
2.6,2.4,70.56699571,-91.3269366,11
1,0.6,86.36747381,-101.3117483,11
4.166666667,4.333333333,46.01577433,-77.79583571,11
4.166666667,4.333333333,40.13459217,-62.58371652,11
4,4,41.48204358,-58.47973756,11
-1.333333333,-1.166666667,46.07267948,-55.56763166,11
-4.6,-4.4,74.84800304,-97.90643137,11
-4.75,-4.25,63.80733638,-96.98337265,11
-4.4,-4.2,70.63235595,-102.4078626,11
-4.333333333,-4.666666667,81.02824,-104.6328934,11
-4.6,-4,72.42406776,-103.5276814,11
0.25,0.25,92.88026528,-102.2665199,11
-4.4,-4.2,86.88385455,-104.9572915,11
-4.6,-4.2,63.84813614,-88.57759594,11
-4.6,-4.4,84.04051738,-118.234799,11
-4.5,-4.5,77.38478926,-108.734405,11
-4.5,-4.25,103.3518078,-118.5092494,11
-4.75,-4,63.96479699,-91.91224889,11
-4.25,-4.5,101.7304588,-119.8602122,11
-0.8,-1,72.07666235,-92.27460819,11
-4.8,-4.2,85.64407205,-118.0267228,11
-0.8,-34.8,105.0118862,-133.3114705,11
-0.5,0.5,97.27893038,-109.5844757,11
-1.2,56.2,80.53348627,-100.60239,11
2.6,3,84.50681012,-93.11148567,11
2.833333333,3,50.33337072,-65.1052695,11
1.333333333,1.333333333,37.32288529,-51.37141707,11
4.6,6.4,65.80831795,-92.27895788,11
4.166666667,4.833333333,37.48132357,-68.59071658,11
1.166666667,1.5,57.30731887,-72.67409798,11
1.5,1.333333333,52.38615663,-74.99097058,11
-3.5,-2.5,109.6852801,-137.6473652,11
-3.166666667,-2.5,96.53173082,-113.1247004,11
-3.166666667,-2.5,97.49886303,-113.0852576,11
-4.4,-4.4,91.55755267,-111.0198735,11
-4.5,-4.333333333,91.65097028,-106.8574235,11
-4.5,-7.666666667,74.24969568,-112.6831245,11
-1.333333333,-1.166666667,81.0667185,-91.06317331,11
-1.333333333,-1.333333333,69.89202941,-82.17863784,11
-1.333333333,-1.666666667,31.17350504,-41.71004248,11
-1.666666667,-1.333333333,56.45695655,-65.76061981,11
-4.6,-4,61.53664088,-67.37113897,11
-5,-4,59.50574199,-76.45564567,11
-4,-4.5,68.21969905,-81.12001566,11
-4.25,-4.75,71.02104743,-95.36929143,11
-2.6,-2.4,69.63375539,-85.32177767,11
-2.6,-2.8,60.40924745,-72.56322752,11
-1,-1,58.63623826,-65.15716369,11
-2.6,-2.6,59.67333009,-68.40947423,11
2.4,2.4,64.03822778,-71.37271381,11
0.8,1,58.08348459,-68.8656224,11
-2.25,-2,61.74477275,-66.69084164,11
-4.75,-4,76.06897236,-86.91191914,11
2.4,2.4,56.52683358,-62.84372002,11
2.4,2.4,59.86682101,-68.55533912,11
-3,-2.4,68.43298345,-74.4199817,11
4,4.4,79.46725954,-89.93614303,11
4.4,4.4,53.04108873,-64.06294129,11
-0.25,0.5,91.84364156,-106.4353395,11
4.2,4.4,71.9309109,-82.95070114,11
4.4,4,43.92483508,-59.06122618,11
2.6,2.4,74.91497745,-87.19932167,11
-0.25,0.25,80.78251348,-90.83815994,11
2.6,2.2,76.13442301,-85.70697538,11
-2,-2.5,68.082659,-82.74801434,11
2.4,2.8,76.08424803,-84.78009978,11
1.2,0.8,73.19694284,-81.13019538,11
0.8,1,52.39386764,-68.6585215,11
2.25,2,79.84240365,-92.03699994,11
-0.6,-0.8,83.28710441,-90.97715417,11
-0.5,0.5,85.37665649,-101.6977924,11
-2.25,-2.25,76.23082505,-84.69037168,11
1,0.6,65.89250868,-76.73267993,11
1,0.6,73.5499248,-82.75056449,11
4,4.2,61.22149077,-70.62398644,11
0.8,0.6,55.91023576,-63.70714431,11
-2,-2,82.00359049,-98.75159653,11
1,1.2,61.95124819,-70.38561545,11
-1,-0.8,71.06738572,-80.70250485,11
2.4,-0.25,74.80598824,-79.78172061,11
2.4,2.4,70.77812193,-81.96932439,11
-1,2.4,50.44442872,-63.73743448,11
2.2,-0.8,69.45588912,-77.87868734,11
2.4,2.6,64.62631857,-79.78696963,11
2,2.2,65.16880534,-75.83598528,11
2,2.25,63.64342481,-68.45300599,11
2.6,2.25,62.37504328,-70.92096221,11
4.2,2.4,63.55823083,-70.77193261,11
1,4.2,63.05461398,-77.64804764,11
2,0.8,82.3482394,-88.97315279,11
4.5,4.75,212.5372359,-179.0785726,12
5,4.5,198.117699,-169.0320393,12
4.4,4.8,203.6067794,-176.3113089,12
4.5,4.5,213.9857696,-178.7038178,12
5,4.25,214.4357488,-178.9528775,12
4.8,4.6,206.9450786,-175.237673,12
4.75,4.25,204.7184197,-175.1429175,12
4.8,5,232.9842698,-197.1898443,12
4.6,4.8,235.4245359,-211.7108873,12
20.8,4.4,216.3097492,-183.1534326,12
4.6,4.4,219.7374556,-185.1392358,12
4.75,5,222.8097034,-180.16364,12
4.75,4.5,181.503568,-156.1295824,12
4.75,5,202.8818688,-168.8974437,12
4,5,210.8178835,-170.070375,12
4.75,4.25,218.6125453,-174.6181019,12
4.5,5,219.5774518,-180.0175055,12
4.5,4.5,210.818121,-176.2607036,12
4.75,4.5,211.5495544,-174.1367643,12
4.75,4.25,226.3866388,-181.5100759,12
5,4,228.6597297,-190.9215022,12
4.75,4.5,199.9401762,-169.3063021,12
4.5,4.5,216.212819,-180.0402441,12
4.25,4.75,223.925179,-190.1671643,12
4.6,4.6,223.3351771,-185.8262668,12
4.75,4.25,217.8693606,-181.8283493,12
5,4.25,223.6988839,-192.8233557,12
4.75,4.25,237.4804718,-202.223579,12
4.2,4.8,220.8332572,-186.845632,12
4.6,4.6,236.7898824,-189.9899028,12
4.6,4.6,241.8233516,-193.719153,12
4.8,4.6,210.9617168,-177.5058741,12
4.6,4.4,208.0891657,-179.3626974,12
4.8,4.2,212.0659819,-161.2822293,12
35,4.6,217.5586225,-166.5274981,12
2.8,2.4,228.164774,-178.0138682,12
4.6,4.8,221.6680218,-158.0687831,12
4.4,5,228.3192506,-173.6866372,12
4.4,4.8,227.9163412,-163.5049167,12
4.6,4.4,204.988108,-153.6200756,12
4.5,4.75,243.9882307,-185.7539439,12
4.5,4.5,243.6597877,-183.4871325,12
4.4,4.6,224.7133448,-171.8324975,12
4.5,5,233.275827,-178.9397174,12
4.5,4.5,251.658243,-194.3744125,12
4.75,4.5,248.6506483,-192.8026145,12
5,4.5,253.8270869,-196.2727372,12
4.5,4.5,224.9152942,-163.673755,12
4.75,4.5,243.6104333,-189.0891908,12
4.5,4.5,241.1746131,-183.634448,12
4.5,4.5,243.0017595,-186.3719136,12
4.25,4.75,240.7010353,-187.5337193,12
4.75,4.5,249.6268665,-193.5090012,12
5,4.5,247.5435897,-199.3128554,12
4.6,4.6,248.1158835,-186.0199278,12
4.25,4.75,244.4956807,-189.6278005,12
4.5,4.5,241.0242375,-186.9566329,12
4.5,4.75,241.6477937,-187.2248425,12
4.5,4.5,244.9519128,-187.9955192,12
4.75,4.75,253.7587077,-201.2289678,12
4.75,4.75,266.0912268,-206.5822737,12
4.25,4.75,250.8010972,-188.0832074,12
4.75,4.75,255.5512224,-195.1416168,12
4.4,4.6,244.9269299,-184.1998456,12
4.5,4.75,239.3207732,-181.3308274,12
4.25,4.75,241.5986855,-184.9007732,12
4.5,4.75,238.1196723,-182.1956395,12
4.8,4.4,246.1798041,-192.3398095,12
4.75,4.75,252.2505484,-193.2328466,12
4.6,4.6,249.2457577,-194.879454,12
4.25,4.75,241.7817073,-189.0042921,12
4.333333333,5,245.9423463,-194.1195811,12
4.5,4.5,240.432296,-187.6651197,12
4.5,4.5,247.7642127,-194.9601872,12
4.5,4.5,245.4027413,-186.8023042,12
4.5,4.5,255.1063088,-196.6528518,12
4.5,4.5,254.3286666,-199.4234882,12
4.75,4.75,263.3526267,-208.6334966,12
4.75,4.5,255.5391756,-197.6417525,12
4.75,4.5,248.5760283,-193.3651561,12
4.75,4.5,253.7020433,-197.1382999,12
4.75,4.75,266.1270105,-206.9872987,12
4.5,4.75,257.4830899,-202.9120964,12
4.75,4.5,258.3425064,-201.6091532,12
4.5,4.5,248.0965494,-194.1284136,12
4.5,4.5,260.5888612,-205.8846194,12
4.75,4.5,250.8522394,-200.2880927,12
4.5,4.5,263.2997868,-208.2538247,12
4.25,4.75,261.9953637,-204.5482569,12
4.75,4.5,263.2528567,-205.5655606,12
4.75,4.5,281.2468378,-220.2180272,12
5,4.5,262.6349173,-205.8884804,12
4.75,4.5,254.008475,-196.5119029,12
4.75,4.5,266.5990304,-209.4422265,12
4.666666667,4.333333333,263.99379,-208.3287765,12
4.5,5,263.8610168,-204.7889746,12
4.25,4.75,259.4161596,-204.8408681,12
4.5,4.75,257.7000047,-202.8647858,12
4.25,5,270.3793029,-209.4544457,12
4.75,4.75,273.7844658,-214.3767472,12
4.75,4.25,258.0214703,-200.6334267,12
4.5,4.75,253.1420475,-197.9304705,12
4.75,5,259.6451507,-205.741731,12
4.75,4.75,246.2281529,-194.9072823,12
5,4.5,270.3959463,-209.4190569,12
5,4,264.7711299,-209.581847,12
4.25,4.75,252.4879497,-199.0635131,12
4.75,4.5,252.9483393,-199.5483301,12
4.75,5,265.8917941,-214.1399977,12
5,4.25,246.0613995,-194.6987227,12
4.75,4.25,242.7352213,-193.3990262,12
5,4,232.310333,-186.8312318,12
4.25,5,250.8507511,-197.4534592,12
4.75,4.5,258.5435243,-205.796213,12
4.75,5,268.2132736,-214.8624606,12
4.5,4.75,260.2823202,-207.9533445,12
5,4.25,246.0487572,-195.4940367,12
4.4,4.6,226.6010222,-179.7942716,12
4.5,4.5,241.4837391,-189.2137865,12
5,4.25,248.793466,-198.832381,12
4.75,4.25,234.4098464,-188.2155445,12
4.75,4.5,249.6383831,-198.3557088,12
5,4.25,253.7211797,-202.6265868,12
4.75,4.25,248.986627,-198.301396,12
4.75,4.75,250.5055541,-199.9755981,12
4.75,4.75,248.2202555,-197.9119961,12
4.5,4.5,239.6597543,-188.4306168,12
4.4,4.8,251.9779465,-202.8984368,12
